,biceps,triceps,middle,label
0,1.6882076145681888,1.7368510291332369,1.7012936629696376,0
1,-1.2083124412840143,-1.2588698900804622,-1.2030550054862739,0
4,1.6882076145681888,1.4183067959356723,0.6869463852946374,0
5,-1.2083124412840143,-1.2588698900804622,0.7104156311103221,0
6,-1.2083124412840143,-0.019528310552559762,0.28819175055445884,0
7,0.3015180271824651,-0.5916642293565259,0.006913193749693823,0
16,0.33185207076349094,-1.2588698900804622,-1.2030550054862739,0
17,0.5992665941676983,-1.2588698900804622,-1.2030550054862739,0
18,0.46716978966430783,-1.2588698900804622,-1.2030550054862739,0
25,-1.2083124412840143,-0.7271170892796743,-1.2030550054862739,0
27,-1.2083124412840143,0.8429921961325263,-1.2030550054862739,0
28,-1.2083124412840143,0.3559745067470973,-1.2030550054862739,0
29,0.5761365642853822,0.6103195683587286,-1.2030550054862739,0
34,1.4162409402234863,1.3564961474447983,1.2528769339094443,0
36,-0.8720454593223557,-1.2588698900804622,-1.2030550054862739,0
38,-0.014370592100395223,0.21800495192825908,-1.2030550054862739,0
39,0.3015180271824651,-1.2588698900804622,-1.2030550054862739,0
45,1.5448170476940024,1.5230452104267647,1.4111262389803294,0
49,0.17306121152605697,0.06662195723688293,-1.2030550054862739,0
50,-1.2083124412840143,-1.2588698900804622,0.06936295768560423,0
51,-0.014370592100395223,-1.2588698900804622,-1.2030550054862739,0
56,1.2538589250942205,0.9427834628162003,-0.5272434805795407,0
60,-1.2083124412840143,-0.21807108165225586,-1.2030550054862739,0
67,1.3197740928643373,1.0368445710435668,0.7216241720011197,0
70,-1.2083124412840143,-0.33256666970331045,-1.2030550054862739,0
73,-1.2083124412840143,-1.2588698900804622,0.9671210874115749,0
76,-1.2083124412840143,-1.2588698900804622,1.0807487345364886,0
78,0.018131139927055312,-1.2588698900804622,-1.2030550054862739,0
84,-1.2083124412840143,0.4384776389369376,1.3729860997849028,0
87,-1.2083124412840143,1.050910699028179,1.1585989239629595,0
92,-1.2083124412840143,-1.2588698900804622,0.12356976455643112,0
95,1.1159161234747987,1.6609180219519932,1.7012936629696376,0
98,1.4084626993097544,1.4200558076118066,1.4575031340770577,0
100,-1.2083124412840143,0.2692377533763209,-1.2030550054862739,0
101,1.6781629668331934,1.0902805630821586,0.8881019385085234,0
102,0.516246341261094,0.25284770461863065,-0.6631424523323485,0
103,-1.2083124412840143,-1.2588698900804622,0.49414048574908,0
109,1.5706720581322084,1.5571264232426065,1.52500985447641,0
120,1.664867825742469,1.6581834851145554,1.5607233503166045,0
124,-0.22998607620301462,-1.2588698900804622,-1.2030550054862739,0
131,1.5582681147259985,1.515699547752242,1.456102453139719,0
136,-1.2083124412840143,-0.019528310552559762,-1.2030550054862739,0
137,0.44571653457366817,0.5736757848842329,0.7826403860053565,0
146,-1.2083124412840143,-0.4033633831009251,-1.2030550054862739,0
147,-1.2083124412840143,-1.2588698900804622,-0.2691664797121055,0
148,0.3990273925520111,0.3688190031991028,0.6420091938728689,0
153,1.5656502987016505,1.4156678248318628,1.3176170537049499,0
159,0.5343000136249676,-1.2588698900804622,-1.2030550054862739,0
164,1.1683967391269758,1.0439414094760766,0.0973620493270845,0
167,-1.2083124412840143,0.159631331180571,-1.2030550054862739,0
169,-1.2083124412840143,0.6103195683587286,-1.2030550054862739,0
170,0.46716978966430783,0.9720495002815982,1.5465744839070612,0
171,-1.2083124412840143,-0.271589202322434,-1.2030550054862739,0
173,1.0360241304048288,1.2551036710919823,1.2913404680641867,0
175,-1.2083124412840143,-0.4876596370223719,-1.2030550054862739,0
178,0.5430281330654781,-1.2588698900804622,-1.2030550054862739,0
179,-0.4432229556177488,-1.2588698900804622,-1.2030550054862739,0
184,1.44340058143566,1.475861034033096,1.5019513859796707,0
186,-1.2083124412840143,0.3688190031991028,-1.2030550054862739,0
188,-1.2083124412840143,0.4886813217462269,-1.2030550054862739,0
189,0.19406288277756586,0.03979310809169179,-1.2030550054862739,0
190,0.5681154561505045,0.3148643825031483,-0.3394386797826583,0
195,1.522679764358818,1.535398970096254,1.442497226618799,0
199,-0.13030588440047622,0.3933694462814361,-0.10891130662920692,0
200,0.04829287178140979,-1.2588698900804622,-1.2030550054862739,0
201,0.5253756905250941,0.4593023939750799,0.36476931650086886,0
206,1.288303370335389,1.102560122997214,-1.2030550054862739,0
212,0.21404474537280663,0.3148643825031483,0.7430860583807029,0
217,1.2388403099091194,0.8908743869598389,-0.2691664797121055,0
222,-1.2083124412840143,0.541773891648823,-1.2030550054862739,0
228,1.070494413642026,0.6172663788843421,-1.2030550054862739,0
231,-0.17724742622671455,-1.2588698900804622,0.06936295768560423,0
234,0.8875594564637187,0.6439169192405837,-1.2030550054862739,0
237,-1.2083124412840143,-1.2588698900804622,0.48399734564479335,0
239,0.8579436094833455,0.4593023939750799,-1.2030550054862739,0
242,-0.6801196417574563,-1.2588698900804622,-1.2030550054862739,0
244,-1.2083124412840143,0.5736757848842329,-1.2030550054862739,0
245,0.26873978207712984,1.0172598170764464,1.4745365214711126,0
248,0.8767204677782868,1.0985102142848333,1.1873440262209531,0
253,-1.2083124412840143,-1.2588698900804622,0.5499860839744879,0
254,0.48753050693802363,-1.2588698900804622,-1.2030550054862739,0
259,1.4873490786394288,1.524365238937003,1.5215645382583693,0
261,-1.2083124412840143,-0.052586858700527296,-1.2030550054862739,0
263,0.7038356892660469,-1.2588698900804622,-1.2030550054862739,0
268,-0.17724742622671455,-1.2588698900804622,-1.2030550054862739,0
270,1.5650878874498833,1.5589305011690333,1.5068129866987854,0
272,0.28545825270904956,-1.2588698900804622,-1.2030550054862739,0
275,0.6281356184633877,-1.2588698900804622,-1.2030550054862739,0
281,1.5799667817666212,1.5123117442265759,1.479155066722625,0
286,0.4112178617004818,-1.2588698900804622,-1.2030550054862739,0
287,0.3990273925520111,0.21800495192825908,0.44055742526427727,0
292,1.5553872067546175,1.4803400723818843,1.3756661142758684,0
295,-1.2083124412840143,0.44902205354447805,-1.2030550054862739,0
303,1.426356681423192,1.2106952759936405,0.9281676738927915,0
308,0.49733419781940896,-1.2588698900804622,-1.2030550054862739,0
309,0.7573323519730627,1.3150073791994705,1.6959072645904665,0
312,1.1563924125571956,1.1740454593284952,1.2879106355504883,0
315,1.6882076145681888,1.7338925897817004,1.526150417374001,0
316,-1.2083124412840143,-1.2588698900804622,0.7046837569699097,0
323,1.5616944683216403,1.5849806963449082,1.54280554479918,0
325,0.3169680582284279,-1.2588698900804622,-1.2030550054862739,0
327,0.6550284080618576,0.3688190031991028,-1.2030550054862739,0
329,-1.2083124412840143,-0.271589202322434,0.3206132616439571,0
334,1.5594139305884154,1.532832309138282,1.4685034700630661,0
338,-0.3599726757623374,-1.2588698900804622,-1.2030550054862739,0
339,-1.2083124412840143,-1.2588698900804622,0.21421488877771952,0
345,1.5501416298544168,1.466737547919577,1.338078900676628,0
350,-1.2083124412840143,0.4276555048052624,-1.2030550054862739,0
356,1.4426070876950894,1.347075039156531,1.1362767599139525,0
359,-1.2083124412840143,0.3933694462814361,-1.2030550054862739,0
362,-1.2083124412840143,0.7839861639653251,1.5529375490509294,0
365,0.6418123430941068,1.0122054275584567,1.254145768118765,0
367,-0.08803219173024382,-1.2588698900804622,-1.2030550054862739,0
370,0.5515683176723154,-1.2588698900804622,-1.2030550054862739,0
376,1.5345355046647362,1.5601283264648445,1.5688312015553638,0
378,-0.08803219173024382,0.06662195723688293,0.4518790054304331,0
380,0.26873978207712984,0.6172663788843421,-1.2030550054862739,0
381,-1.2083124412840143,-1.2588698900804622,-0.028239906450664206,0
382,0.21404474537280663,0.11567611270203745,-0.06663535810126328,0
387,0.7908225507925444,-0.5916642293565259,1.7012936629696376,0
397,1.678977297821487,1.3843805711668824,-1.2030550054862739,0
399,0.9308823160352976,-1.2588698900804622,-1.2030550054862739,0
963,0.37348107090713767,-1.2588698900804622,-1.2030550054862739,0
1569,0.9308823160352976,1.7368510291332369,1.7012936629696376,0
1570,-1.2083124412840143,-1.2588698900804622,0.006913193749693823,0
1572,0.6678132349436877,0.32902517724813973,0.006913193749693823,0
1574,0.3600749819473337,-0.9206746435789118,-1.2030550054862739,0
1575,1.1439859571522923,-1.2588698900804622,-1.2030550054862739,0
1577,0.5069025392887685,-1.2588698900804622,-1.2030550054862739,0
1578,0.6350335180111775,0.6240957789736408,0.148196484111332,0
1581,0.2513075703540991,0.0918577637373423,0.5230700608315394,0
1583,0.42304976109435405,0.21800495192825908,-1.2030550054862739,0
1585,-1.2083124412840143,-1.2588698900804622,-0.15591248966159577,0
1586,0.9761441910106176,-1.2588698900804622,-1.2030550054862739,0
1588,-0.22998607620301462,-0.33256666970331045,-1.2030550054862739,0
1589,-1.2083124412840143,-0.7271170892796743,0.3505901921126285,0
1592,0.3990273925520111,-1.2588698900804622,0.36476931650086886,0
1594,0.5515683176723154,0.1800028401031019,0.3505901921126285,0
1596,0.10277369644476352,-1.2588698900804622,-1.2030550054862739,0
1597,1.2457433277794447,-1.2588698900804622,-1.2030550054862739,0
1598,-1.2083124412840143,-1.2588698900804622,0.7964557566335713,0
1599,-1.2083124412840143,0.1994335033735032,-1.2030550054862739,0
1603,-1.2083124412840143,-1.2588698900804622,-0.10891130662920692,0
1605,0.7953784531233133,0.6689141478465502,0.5987558333764885,0
1607,-1.2083124412840143,0.03979310809169179,-0.15591248966159577,0
1608,1.6781629668331934,1.2948584445233577,-1.2030550054862739,0
1609,-1.2083124412840143,0.06662195723688293,-1.2030550054862739,0
1611,0.5515683176723154,0.7839861639653251,0.5040254731887459,0
1614,-1.2083124412840143,0.11567611270203745,0.21421488877771952,0
1616,0.6484760514488598,0.549987162476176,0.1714178445814033,0
1618,0.10277369644476352,-1.2588698900804622,0.06936295768560423,0
1625,-0.22998607620301462,-1.2588698900804622,0.0973620493270845,0
1627,0.8341251658362169,0.3933694462814361,0.5499860839744879,0
1629,-0.049596335584356964,-1.2588698900804622,-1.2030550054862739,0
1630,1.5650878874498833,0.4980236039731843,-1.2030550054862739,0
1631,-1.2083124412840143,-1.2588698900804622,0.7160616127869692,0
1632,-1.2083124412840143,0.3002040641678599,-1.2030550054862739,0
1633,0.10277369644476352,-0.08840230047845177,0.5040254731887459,0
1636,-1.2083124412840143,0.5580378274268653,0.4044861700328625,0
1638,0.49733419781940896,0.28500843642153684,-1.2030550054862739,0
1640,0.42304976109435405,-1.2588698900804622,-1.2030550054862739,0
1641,0.8300076868979576,-1.2588698900804622,-1.2030550054862739,0
1642,-1.2083124412840143,-1.2588698900804622,0.42889848801243374,0
1643,-1.2083124412840143,0.11567611270203745,-1.2030550054862739,0
1644,0.6862396660656983,0.524832844874406,-1.2030550054862739,0
1647,0.33185207076349094,-1.2588698900804622,0.47358259868954805,0
1649,0.6801935317578516,0.25284770461863065,0.193381964619091,0
1652,1.1236111484300397,-1.2588698900804622,-1.2030550054862739,0
1653,-1.2083124412840143,-1.2588698900804622,0.8226361684890624,0
1655,-0.014370592100395223,-0.019528310552559762,-1.2030550054862739,0
1658,0.6281356184633877,0.7305756900025681,0.8510120477009239,0
1660,0.6281356184633877,0.4791206458821368,-1.2030550054862739,0
1663,1.3253146085141905,-1.2588698900804622,-1.2030550054862739,0
1665,-1.2083124412840143,0.4693313298960035,-1.2030550054862739,0
1669,0.5992665941676983,0.5160906822213766,0.2529050033561208,0
1671,0.7368089204125399,0.4980236039731843,0.1714178445814033,0
1673,0.018131139927055312,-0.12746529976576773,-1.2030550054862739,0
1674,1.3340072605248914,0.06662195723688293,-1.2030550054862739,0
1676,0.477479863071554,-1.2588698900804622,-1.2030550054862739,0
1677,0.15093260944237585,0.6172663788843421,0.613724820775195,0
1680,0.7038356892660469,0.6103195683587286,0.787302664090861,0
1682,0.477479863071554,-0.12746529976576773,-1.2030550054862739,0
1685,1.303795779975846,-1.2588698900804622,-1.2030550054862739,0
1686,-1.2083124412840143,0.01116111023210571,0.7046837569699097,0
1687,-0.4432229556177488,-0.33256666970331045,-1.2030550054862739,0
1688,0.49733419781940896,0.6503132085596209,0.37845749895131053,0
1691,-1.2083124412840143,-1.2588698900804622,-0.6631424523323485,0
1693,0.8087319164317376,0.1994335033735032,0.28819175055445884,0
1695,0.34620927848265043,-1.2588698900804622,-1.2030550054862739,0
1696,1.4418118319663942,-0.08840230047845177,-1.2030550054862739,0
1699,-1.2083124412840143,0.6374174876339032,0.5669398693043164,0
1702,-1.2083124412840143,-1.2588698900804622,0.148196484111332,0
1704,1.192878339727343,1.124104290415036,1.0989274242976423,0
1706,0.4112178617004818,-1.2588698900804622,-0.06663535810126328,0
1708,-1.2083124412840143,0.34271878191663435,0.6869463852946374,0
1709,-1.2083124412840143,-1.2588698900804622,-0.5272434805795407,0
1710,0.5430281330654781,0.4886813217462269,0.3047320491602638,0
1713,-1.2083124412840143,-0.271589202322434,0.2529050033561208,0
1715,0.26873978207712984,-1.2588698900804622,-1.2030550054862739,0
1718,1.6814089193245167,1.3319344002323377,-1.2030550054862739,0
1720,-1.2083124412840143,0.38127657521182245,-1.2030550054862739,0
1721,0.3015180271824651,-0.21807108165225586,-1.2030550054862739,0
1726,0.5681154561505045,0.3559745067470973,-0.8584938731300092,0
1729,1.6882076145681888,1.7368510291332369,1.550301093185744,0
1730,-1.2083124412840143,0.0918577637373423,0.6063135709136822,0
1732,0.3990273925520111,0.21800495192825908,-1.2030550054862739,0
1735,-1.2083124412840143,-0.4033633831009251,0.23402475113874072,0
1737,0.5343000136249676,-0.052586858700527296,-1.2030550054862739,0
1740,1.202233637972223,0.21800495192825908,-1.2030550054862739,0
1741,-1.2083124412840143,-1.2588698900804622,0.37845749895131053,0
1742,-1.2083124412840143,0.1800028401031019,-1.2030550054862739,0
1743,-1.2083124412840143,-0.17040920538615714,-1.2030550054862739,0
1748,0.7206715299400368,0.21800495192825908,0.006913193749693823,0
1751,1.6882076145681888,1.607206381123737,1.0744772640507896,0
1752,-1.2083124412840143,0.2357886911132271,-1.2030550054862739,0
1753,-1.2083124412840143,-1.2588698900804622,0.3505901921126285,0
1754,0.3864564486652038,0.11567611270203745,-1.2030550054862739,0
1762,1.6882076145681888,1.3891489001773063,0.6554005303385775,0
1763,-1.2083124412840143,0.32902517724813973,0.6209950094673617,0
1765,0.8087319164317376,0.4980236039731843,0.5669398693043164,0
1770,0.28545825270904956,0.21800495192825908,-1.2030550054862739,0
1773,1.3095832211148504,0.0918577637373423,-1.2030550054862739,0
1774,-1.2083124412840143,0.1994335033735032,0.5322520836736817,0
1775,-1.2083124412840143,-1.2588698900804622,0.5669398693043164,0
1779,-1.2083124412840143,-1.2588698900804622,0.46288172144552375,0
1781,0.5430281330654781,-0.9206746435789118,-1.2030550054862739,0
1784,1.6882076145681888,1.4573844322138676,0.1714178445814033,0
1785,-1.2083124412840143,-0.5916642293565259,0.6808439331886652,0
1786,-1.2083124412840143,-1.2588698900804622,0.5040254731887459,0
1792,0.6980580919801656,0.28500843642153684,-0.10891130662920692,0
1795,1.6882076145681888,1.7028961607860211,1.185807247143344,0
1797,0.6614729974436804,-1.2588698900804622,-1.2030550054862739,0
1798,0.7206715299400368,0.21800495192825908,0.3358846491092685,0
1801,-1.2083124412840143,0.3148643825031483,0.48399734564479335,0
1803,0.15093260944237585,-1.2588698900804622,-1.2030550054862739,0
1806,1.483827501216204,-1.2588698900804622,-1.2030550054862739,0
1807,-1.2083124412840143,-0.271589202322434,0.6063135709136822,0
1808,0.6066847160894324,-1.2588698900804622,0.006913193749693823,0
1809,0.7368089204125399,0.7037169042167692,0.44055742526427727,0
1812,-1.2083124412840143,-0.052586858700527296,0.3206132616439571,0
1814,0.0764231783535582,-1.2588698900804622,-1.2030550054862739,0
1817,1.5289690284610888,0.6374174876339032,-1.2030550054862739,0
1818,-1.2083124412840143,-1.2588698900804622,-0.3394386797826583,0
1819,0.17306121152605697,-1.2588698900804622,-1.2030550054862739,0
1820,0.23309943013804163,0.11567611270203745,-0.4233517244745203,0
1825,0.7206715299400368,0.2692377533763209,-1.2030550054862739,0
1827,-1.2083124412840143,-1.2588698900804622,-0.2087896206955847,0
1828,1.6882076145681888,1.7206569849308744,1.328000284433367,0
1831,0.0764231783535582,0.680853409233281,0.7325083882465342,0
1836,0.6066847160894324,-0.17040920538615714,-1.2030550054862739,0
1839,1.6882076145681888,1.7210419432585142,1.4079041029755217,0
1840,-1.2083124412840143,-0.019528310552559762,0.3505901921126285,0
1841,-1.2083124412840143,0.5071570694137093,-1.2030550054862739,0
1842,-1.2083124412840143,0.680853409233281,0.628129270021979,0
1845,-1.2083124412840143,-1.2588698900804622,-0.4233517244745203,0
1847,0.5599283278212975,-0.08840230047845177,-1.2030550054862739,0
1850,1.6882076145681888,1.6545052127946656,1.2023526050026847,0
1851,-1.2083124412840143,-1.2588698900804622,0.8097765744070016,0
1852,0.5681154561505045,-1.2588698900804622,-0.3394386797826583,0
1853,0.5917062074636298,0.4791206458821368,-1.2030550054862739,0
1858,0.6211144806303404,0.1800028401031019,-1.2030550054862739,0
1860,-0.5460410729945264,-1.2588698900804622,-0.2691664797121055,0
1861,1.6882076145681888,1.682512899116379,1.349794880081664,0
1863,-1.2083124412840143,0.25284770461863065,-1.2030550054862739,0
1864,0.5253756905250941,0.4980236039731843,0.27093694824129383,0
1869,0.6211144806303404,-0.12746529976576773,-1.2030550054862739,0
1871,-1.2083124412840143,-1.2588698900804622,-0.06663535810126328,0
1872,1.6882076145681888,1.5385823923136497,0.5910458654896091,0
1873,-1.2083124412840143,-1.2588698900804622,0.692951893272497,0
1874,-1.2083124412840143,-0.4876596370223719,0.006913193749693823,0
1878,-0.5460410729945264,-1.2588698900804622,-1.2030550054862739,0
1880,0.7368089204125399,0.5580378274268653,0.28819175055445884,0
1882,-1.2083124412840143,0.3148643825031483,-1.2030550054862739,0
1883,1.6882076145681888,1.4620903999952732,0.03931760852373854,0
1884,-1.2083124412840143,-1.2588698900804622,0.6683356756765768,0
1886,0.6211144806303404,0.6566095184577555,-1.2030550054862739,0
1889,0.21404474537280663,-0.9206746435789118,0.3358846491092685,0
1891,0.34620927848265043,-0.33256666970331045,-1.2030550054862739,0
1894,1.6882076145681888,1.636022273965018,1.2399273180514738,0
1899,1.6882076145681888,1.7368510291332369,1.7012936629696376,0
1902,0.5599283278212975,0.4886813217462269,0.36476931650086886,0
1904,-1.2083124412840143,-1.2588698900804622,0.5831775834883737,0
1905,1.6882076145681888,1.717950751513037,1.3330765779538392,0
1908,-0.6801196417574563,0.38127657521182245,0.6619232277075651,0
1913,0.6350335180111775,0.524832844874406,-0.4233517244745203,0
1915,-1.2083124412840143,-0.5916642293565259,-1.2030550054862739,0
1916,1.6882076145681888,1.7368510291332369,1.6323714349647378,0
1918,-1.2083124412840143,-1.2588698900804622,0.3206132616439571,0
1919,0.3169680582284279,0.3002040641678599,-0.10891130662920692,0
1924,0.37348107090713767,0.38127657521182245,-1.2030550054862739,0
1927,1.6882076145681888,1.7368510291332369,1.6604288889222265,0
1929,0.3015180271824651,-1.2588698900804622,0.12356976455643112,0
1930,0.34620927848265043,0.6240957789736408,0.193381964619091,0
1935,0.5069025392887685,0.03979310809169179,-1.2030550054862739,0
1938,1.6882076145681888,1.716784715359408,1.3800865193441467,0
1941,0.5343000136249676,-0.33256666970331045,-1.2030550054862739,0
1946,0.44571653457366817,0.159631331180571,-0.3394386797826583,0
1949,1.6882076145681888,1.7057167801300663,1.2516034512194776,0
1950,-1.2083124412840143,0.1994335033735032,0.148196484111332,0
1952,0.5515683176723154,0.3933694462814361,0.06936295768560423,0
1960,1.6882076145681888,1.413898096707494,0.541220950096648,0
1963,-0.014370592100395223,0.7653816259331582,0.6420091938728689,0
1968,0.5253756905250941,-1.2588698900804622,-1.2030550054862739,0
1971,1.6882076145681888,1.7136568027173993,1.2264776016541925,0
1972,-1.2083124412840143,-0.12746529976576773,0.12356976455643112,0
1973,0.5839981160358099,-1.2588698900804622,-1.2030550054862739,0
1974,0.6418123430941068,0.4886813217462269,-0.028239906450664206,0
1977,-1.2083124412840143,-1.2588698900804622,0.541220950096648,0
1979,0.19406288277756586,-1.2588698900804622,-1.2030550054862739,0
1981,-1.2083124412840143,-0.9206746435789118,-1.2030550054862739,0
1982,1.6882076145681888,1.3491891104277483,-1.2030550054862739,0
1987,1.5879691745171078,1.7368510291332369,1.7012936629696376,0
1990,0.5253756905250941,0.3559745067470973,0.3206132616439571,0
1994,-1.2083124412840143,-1.2588698900804622,0.6869463852946374,0
1995,0.26873978207712984,-1.2588698900804622,0.03931760852373854,0
1996,-1.2083124412840143,-0.4876596370223719,0.49414048574908,0
2001,0.3864564486652038,-0.12746529976576773,-1.2030550054862739,0
2004,1.6882076145681888,1.7368510291332369,1.5192477047548918,0
2006,-1.2083124412840143,-1.2588698900804622,0.5987558333764885,0
2007,-0.014370592100395223,0.38127657521182245,0.7216241720011197,0
2012,0.5253756905250941,0.03979310809169179,-1.2030550054862739,0
2014,-1.2083124412840143,-1.2588698900804622,-0.8584938731300092,0
2015,1.6882076145681888,1.668111293220452,1.2153316881654992,0
2016,-1.2083124412840143,0.32902517724813973,-1.2030550054862739,0
2018,0.19406288277756586,0.6749281140391522,0.6808439331886652,0
2026,1.6882076145681888,1.4437182692582877,0.44055742526427727,0
2029,-1.2083124412840143,-1.2588698900804622,0.5322520836736817,0
2034,0.3864564486652038,-0.21807108165225586,-1.2030550054862739,0
2037,1.6882076145681888,1.7368510291332369,1.6820358803988427,0
2040,-1.2083124412840143,-1.2588698900804622,0.1714178445814033,0
2042,1.6089566289045878,1.7368510291332369,1.7012936629696376,0
2045,0.33185207076349094,0.3148643825031483,0.3047320491602638,0
2048,1.6882076145681888,1.7368510291332369,1.6969240660204172,0
2053,1.6838236637892285,1.7368510291332369,1.7012936629696376,0
2056,0.4565868477138158,0.40511798966761187,-0.3394386797826583,0
2061,-1.2083124412840143,-0.21807108165225586,0.193381964619091,0
2062,-1.2083124412840143,0.524832844874406,0.613724820775195,0
2064,1.6882076145681888,1.7368510291332369,1.7012936629696376,0
2067,0.5839981160358099,0.1382252210423734,0.27093694824129383,0
2070,1.6882076145681888,1.7368510291332369,1.680971210113682,0
2072,0.4565868477138158,-1.2588698900804622,-1.2030550054862739,0
2075,1.5369816924648974,1.7368510291332369,1.7012936629696376,0
2078,0.42304976109435405,0.4165409276669138,0.4044861700328625,0
2083,-1.2083124412840143,-1.2588698900804622,0.3047320491602638,0
2084,-1.2083124412840143,0.0918577637373423,0.6209950094673617,0
2089,0.516246341261094,0.3002040641678599,-1.2030550054862739,0
2092,1.6882076145681888,1.7368510291332369,1.6619400039452137,0
2094,0.21404474537280663,-1.2588698900804622,-1.2030550054862739,0
2095,-1.2083124412840143,0.2692377533763209,0.5751445350969236,0
2100,0.6066847160894324,0.4886813217462269,0.27093694824129383,0
2103,1.6882076145681888,1.7368510291332369,1.6421278353637745,0
2105,-1.2083124412840143,-1.2588698900804622,0.0973620493270845,0
2108,1.5739806079299603,1.7368510291332369,1.7012936629696376,0
2111,0.46716978966430783,0.549987162476176,0.44055742526427727,0
2117,-1.2083124412840143,-0.052586858700527296,0.613724820775195,0
2119,1.6694954866020295,1.7368510291332369,1.7012936629696376,0
2122,0.3600749819473337,0.2357886911132271,0.3047320491602638,0
2130,1.535760710610662,1.7368510291332369,1.7012936629696376,0
2133,0.26873978207712984,0.541773891648823,0.42889848801243374,0
2141,1.3996181876818279,1.7368510291332369,1.7012936629696376,0
2144,0.26873978207712984,0.28500843642153684,0.41688206041971165,0
2149,-1.2083124412840143,0.4593023939750799,-1.2030550054862739,0
2150,0.26873978207712984,0.5160906822213766,0.541220950096648,0
2152,1.6571602463122423,1.7368510291332369,1.7012936629696376,0
2155,0.7420424533269447,0.6103195683587286,0.6209950094673617,0
2159,-1.2083124412840143,-1.2588698900804622,0.5230700608315394,0
2163,1.6882076145681888,1.7368510291332369,1.7012936629696376,0
2166,0.4565868477138158,0.4593023939750799,0.541220950096648,0
2169,1.6882076145681888,1.7368510291332369,1.6955676199186096,0
2172,-1.2083124412840143,0.40511798966761187,0.6683356756765768,0
2177,0.7908225507925444,0.6981220344945399,0.5040254731887459,0
2179,-1.2083124412840143,-1.2588698900804622,0.47358259868954805,0
2180,1.6882076145681888,1.6663262563714507,1.3320673046791012,0
2181,-1.2083124412840143,-1.2588698900804622,0.8053891240263858,0
2185,1.6882076145681888,1.7368510291332369,1.7012936629696376,0
2188,0.2513075703540991,0.3148643825031483,0.148196484111332,0
2196,1.639397471144014,1.7368510291332369,1.7012936629696376,0
2199,0.44571653457366817,0.40511798966761187,0.5230700608315394,0
2204,-1.2083124412840143,0.03979310809169179,-1.2030550054862739,0
2205,-0.13030588440047622,0.6172663788843421,0.5669398693043164,0
2207,1.664867825742469,1.7368510291332369,1.7012936629696376,0
2210,0.6211144806303404,0.6866925624189224,0.5040254731887459,0
2213,1.6882076145681888,1.7368510291332369,1.6897384921759286,0
2215,-1.2083124412840143,-1.2588698900804622,0.4518790054304331,0
2218,1.6153575816290942,1.7368510291332369,1.7012936629696376,0
2221,0.4345431691302302,0.3559745067470973,0.41688206041971165,0
2225,-1.2083124412840143,-0.4033633831009251,0.5987558333764885,0
2229,1.6882076145681888,1.7368510291332369,1.7012936629696376,0
2232,0.34620927848265043,0.2692377533763209,0.3206132616439571,0
2235,1.6882076145681888,1.7368510291332369,1.6668032403886919,0
2238,0.48753050693802363,0.5071570694137093,-1.2030550054862739,0
2243,0.3600749819473337,0.01116111023210571,-0.5272434805795407,0
2246,1.6882076145681888,1.7073187635467741,1.3330765779538392,0
2249,0.8043319549290079,0.5333914440037923,0.3047320491602638,0
2254,0.2513075703540991,-0.271589202322434,0.42889848801243374,0
2257,1.6882076145681888,1.5129917921435034,0.9406031216799767,0
2258,-1.2083124412840143,-1.2588698900804622,0.613724820775195,0
2259,-1.2083124412840143,-1.2588698900804622,0.36476931650086886,0
2265,0.5992665941676983,0.25284770461863065,-1.2030550054862739,0
2268,1.6882076145681888,1.713263907271222,1.3835820180376854,0
2269,-1.2083124412840143,-1.2588698900804622,0.6554005303385775,0
2270,-1.2083124412840143,0.4384776389369376,-1.2030550054862739,0
2271,0.7038356892660469,0.6240957789736408,0.3206132616439571,0
2276,0.4112178617004818,0.03979310809169179,-0.15591248966159577,0
2279,1.6882076145681888,1.3985072118281738,-0.06663535810126328,0
2280,-1.2083124412840143,-0.21807108165225586,0.28819175055445884,0
2282,-0.014370592100395223,0.5736757848842329,0.36476931650086886,0
2287,0.516246341261094,0.3688190031991028,0.49414048574908,0
2290,1.6882076145681888,1.2948584445233577,0.7731372654782266,0
2291,-1.2083124412840143,0.21800495192825908,0.6869463852946374,0
2298,0.49733419781940896,0.01116111023210571,-1.2030550054862739,0
2300,-1.2083124412840143,-1.2588698900804622,0.23402475113874072,0
2301,1.6882076145681888,1.6816561264193088,1.262900171655575,0
2309,0.3015180271824651,0.2357886911132271,-1.2030550054862739,0
2312,1.6882076145681888,1.7225776947105145,1.4237169245649273,0
2315,0.5599283278212975,0.7408337354767327,0.47358259868954805,0
2320,0.5069025392887685,-0.052586858700527296,-1.2030550054862739,0
2322,-1.2083124412840143,-1.2588698900804622,0.3358846491092685,0
2323,1.6882076145681888,1.6493862009669236,1.09695277690103,0
2324,-1.2083124412840143,0.1994335033735032,0.6351324626943674,0
2331,0.6139657201040624,0.2692377533763209,-0.6631424523323485,0
2333,0.04829287178140979,-1.2588698900804622,-0.8584938731300092,0
2334,1.6882076145681888,1.6943002461373189,1.2292093625854237,0
2335,-1.2083124412840143,-1.2588698900804622,0.8309679787862858,0
2336,0.26873978207712984,-1.2588698900804622,0.5322520836736817,0
2337,0.747206353849498,0.32902517724813973,0.37845749895131053,0
2342,-0.22998607620301462,0.34271878191663435,-1.2030550054862739,0
2345,1.631566131045154,1.2106952759936405,-1.2030550054862739,0
2353,0.516246341261094,0.3688190031991028,0.006913193749693823,0
2355,-0.22998607620301462,-1.2588698900804622,-0.028239906450664206,0
2356,1.6882076145681888,1.713263907271222,1.2332673090045958,0
2357,-1.2083124412840143,-0.4876596370223719,0.7682934232449777,0
2359,0.7206715299400368,0.5887333471692581,0.28819175055445884,0
2366,-1.2083124412840143,0.524832844874406,-1.2030550054862739,0
2367,1.6882076145681888,1.3805217379795252,0.5322520836736817,0
2368,-1.2083124412840143,-1.2588698900804622,0.787302664090861,0
2375,0.5992665941676983,0.34271878191663435,-1.2030550054862739,0
2378,1.6882076145681888,1.7116880499399922,1.3545606820824707,0
2379,-1.2083124412840143,0.25284770461863065,0.51366479491942,0
2381,0.6350335180111775,-0.5916642293565259,0.12356976455643112,0
2386,0.4345431691302302,-1.2588698900804622,-1.2030550054862739,0
2389,1.6882076145681888,1.7305351404667098,1.4691791853113532,0
2390,-1.2083124412840143,0.4593023939750799,0.613724820775195,0
2391,0.2513075703540991,-0.7271170892796743,-1.2030550054862739,0
2397,0.6281356184633877,0.549987162476176,0.006913193749693823,0
2400,1.6882076145681888,1.6930554641180062,1.3564485718183679,0
2403,0.018131139927055312,0.32902517724813973,-1.2030550054862739,0
2408,0.6862396660656983,0.44902205354447805,-0.10891130662920692,0
2411,1.6882076145681888,1.6854957937240378,1.3360867136954104,0
2412,-1.2083124412840143,-1.2588698900804622,0.8183989645849761,0
2413,0.5681154561505045,-1.2588698900804622,-1.2030550054862739,0
2419,-0.17724742622671455,0.3002040641678599,-1.2030550054862739,0
2422,1.6882076145681888,1.7368510291332369,1.590622247184691,0
2423,-1.2083124412840143,-0.7271170892796743,0.6988634100866588,0
2424,0.15093260944237585,0.03979310809169179,-1.2030550054862739,0
2425,0.5599283278212975,0.70923474409547,0.006913193749693823,0
2432,-1.2083124412840143,-0.12746529976576773,-1.2030550054862739,0
2433,1.6882076145681888,1.347075039156531,0.5669398693043164,0
2441,0.26873978207712984,0.44902205354447805,-1.2030550054862739,0
2444,1.6882076145681888,1.722194367428043,1.4388237648752484,0
2447,-1.2083124412840143,-1.2588698900804622,0.27093694824129383,0
2455,1.6882076145681888,1.7368510291332369,1.6589107299800496,0
2457,-1.2083124412840143,0.4791206458821368,-1.2030550054862739,0
2460,1.5381984786368312,1.7368510291332369,1.7012936629696376,0
2463,0.2513075703540991,0.3148643825031483,0.03931760852373854,0
2471,1.4014045674759585,1.7368510291332369,1.7012936629696376,0
2474,-0.13030588440047622,0.28500843642153684,0.23402475113874072,0
2479,0.23309943013804163,-1.2588698900804622,-1.2030550054862739,0
2480,-1.2083124412840143,-0.7271170892796743,0.5669398693043164,0
2482,1.2617985675444252,1.6365080791307314,1.7012936629696376,0
2485,0.516246341261094,0.3002040641678599,0.51366479491942,0
2490,0.3864564486652038,-1.2588698900804622,-0.8584938731300092,0
2493,0.5917062074636298,1.3091919610861924,1.6766772653616815,0
2496,0.6211144806303404,0.3933694462814361,0.48399734564479335,0
2501,0.37348107090713767,-1.2588698900804622,0.3358846491092685,0
2504,-0.8720454593223557,-1.2588698900804622,1.1105505035889944,0
2515,0.21404474537280663,0.4886813217462269,0.41688206041971165,0
2524,0.15093260944237585,0.5071570694137093,-1.2030550054862739,0
2526,-1.2083124412840143,0.06662195723688293,0.23402475113874072,0
2529,-1.2083124412840143,0.11567611270203745,0.3047320491602638,0
2534,1.318655778442074,-1.2588698900804622,-1.2030550054862739,0
2537,0.3600749819473337,0.28500843642153684,-0.3394386797826583,0
2546,-1.2083124412840143,-1.2588698900804622,0.28819175055445884,0
2548,-0.29011314398535387,0.5160906822213766,0.5585563029869045,0
2549,-0.29011314398535387,-1.2588698900804622,-1.2030550054862739,0
2558,-1.2083124412840143,0.5580378274268653,-1.2030550054862739,0
2561,1.4005124858097868,1.7368510291332369,1.7012936629696376,0
2572,0.5515683176723154,0.4693313298960035,1.4190500892056128,0
2575,-1.2083124412840143,0.21800495192825908,0.37845749895131053,0
2592,0.6921936156819333,-1.2588698900804622,-1.2030550054862739,0
2594,-1.2083124412840143,0.4165409276669138,0.613724820775195,0
2597,0.018131139927055312,0.5333914440037923,0.12356976455643112,0
2617,-1.2083124412840143,-1.2588698900804622,0.193381964619091,0
2618,1.1120080956015752,1.6246666369552116,1.7012936629696376,0
2629,-1.2083124412840143,-1.2588698900804622,1.2958612506058858,0
2640,0.21404474537280663,0.3688190031991028,0.193381964619091,0
2647,-0.29011314398535387,-0.271589202322434,-1.2030550054862739,0
2649,0.6211144806303404,-1.2588698900804622,0.8053891240263858,0
2651,0.6801935317578516,0.40511798966761187,0.6209950094673617,0
2654,0.2513075703540991,-1.2588698900804622,-1.2030550054862739,0
2659,1.6134004662351287,1.0622546448885708,0.0973620493270845,0
2660,-1.2083124412840143,0.5160906822213766,-1.2030550054862739,0
2665,1.0187861853129694,1.0439414094760766,1.1162225234649512,0
2667,0.516246341261094,0.4593023939750799,-0.3394386797826583,0
2670,1.396018613288262,-1.2588698900804622,-1.2030550054862739,0
2672,0.3990273925520111,-1.2588698900804622,-1.2030550054862739,0
2675,1.6882076145681888,1.7368510291332369,1.7012936629696376,0
2676,1.2006908187837555,1.203021650959506,1.269020840180827,0
2678,1.3497648853760045,1.3173086898529152,1.3218080441565194,0
2681,0.9312648191642228,-1.2588698900804622,-1.2030550054862739,0
2682,-1.2083124412840143,-1.2588698900804622,0.7378344873236136,0
2687,1.361895235248833,1.4156678248318628,1.4267927767256068,0
2689,1.5942426067228865,1.6019084346988395,1.5668227930111822,0
2691,-1.2083124412840143,-0.08840230047845177,-0.6631424523323485,0
2693,-1.2083124412840143,0.680853409233281,-1.2030550054862739,0
2694,-1.2083124412840143,0.34271878191663435,-1.2030550054862739,0
2698,1.4759553361219515,1.5116304437201196,1.54280554479918,0
2699,1.6882076145681888,1.7368510291332369,1.7012936629696376,1
2700,0.5069025392887685,0.3559745067470973,-0.028239906450664206,1
2702,-1.2083124412840143,-1.2588698900804622,-1.2030550054862739,1
2703,0.9375645401423461,-1.2588698900804622,-1.2030550054862739,1
2704,-1.2083124412840143,0.2357886911132271,0.21421488877771952,1
2705,-0.13030588440047622,-1.2588698900804622,-1.2030550054862739,1
2711,0.28545825270904956,-0.21807108165225586,-0.2691664797121055,1
2714,1.6882076145681888,1.7368510291332369,1.6907748121621091,1
2717,-1.2083124412840143,0.3688190031991028,0.21421488877771952,1
2718,-0.08803219173024382,-1.2588698900804622,-1.2030550054862739,1
2719,1.5162769709299582,1.7368510291332369,1.7012936629696376,1
2720,-0.6801196417574563,-1.2588698900804622,-1.2030550054862739,1
2722,0.5599283278212975,0.6103195683587286,0.51366479491942,1
2727,0.2513075703540991,-1.2588698900804622,-1.2030550054862739,1
2728,-1.2083124412840143,-1.2588698900804622,0.4518790054304331,1
2729,0.19406288277756586,-1.2588698900804622,-1.2030550054862739,1
2730,1.505786089953399,1.7368510291332369,1.7012936629696376,1
2731,-0.29011314398535387,-1.2588698900804622,-1.2030550054862739,1
2733,0.37348107090713767,0.5071570694137093,0.5669398693043164,1
2738,0.42304976109435405,-1.2588698900804622,-1.2030550054862739,1
2741,0.5515683176723154,1.48255948273677,1.7012936629696376,1
2742,0.21404474537280663,0.34271878191663435,-0.06663535810126328,1
2744,0.6550284080618576,0.5580378274268653,0.5040254731887459,1
2749,-0.4432229556177488,-1.2588698900804622,0.2529050033561208,1
2750,-1.2083124412840143,0.11567611270203745,-0.2691664797121055,1
2751,-1.2083124412840143,0.01116111023210571,-1.2030550054862739,1
2752,1.1717562064352387,1.6446693596456907,1.7012936629696376,1
2753,0.44571653457366817,0.1800028401031019,-1.2030550054862739,1
2755,0.3990273925520111,0.541773891648823,0.47358259868954805,1
2760,-1.2083124412840143,0.34271878191663435,-1.2030550054862739,1
2761,-1.2083124412840143,-1.2588698900804622,0.49414048574908,1
2763,1.2303814983505805,1.7000534284571645,1.7012936629696376,1
2764,0.34620927848265043,-1.2588698900804622,-1.2030550054862739,1
2766,0.5343000136249676,0.5812744611642143,0.5669398693043164,1
2771,0.15093260944237585,-1.2588698900804622,0.12356976455643112,1
2772,-1.2083124412840143,-1.2588698900804622,0.6063135709136822,1
2774,1.3329319972148979,1.719113044128945,1.7012936629696376,1
2775,0.0764231783535582,-1.2588698900804622,-1.2030550054862739,1
2777,0.516246341261094,0.549987162476176,0.49414048574908,1
2779,-1.2083124412840143,-1.2588698900804622,-0.3394386797826583,1
2782,0.5069025392887685,-1.2588698900804622,0.1714178445814033,1
2783,-1.2083124412840143,0.1994335033735032,0.7731372654782266,1
2785,1.5947603768254341,1.7368510291332369,1.7012936629696376,1
2788,0.4112178617004818,0.4886813217462269,0.41688206041971165,1
2793,-1.2083124412840143,-1.2588698900804622,-0.028239906450664206,1
2796,1.342496493981277,1.7331491802736048,1.7012936629696376,1
2799,0.6418123430941068,0.6374174876339032,0.5987558333764885,1
2804,-1.2083124412840143,-1.2588698900804622,0.5322520836736817,1
2805,-1.2083124412840143,-0.4033633831009251,0.7216241720011197,1
2807,1.1311501321597088,1.6558889196909539,1.7012936629696376,1
2810,0.477479863071554,0.5887333471692581,0.5987558333764885,1
2815,-1.2083124412840143,-1.2588698900804622,-0.15591248966159577,1
2816,-1.2083124412840143,-0.4033633831009251,0.37845749895131053,1
2818,0.23309943013804163,1.0754425867352242,1.6136925682034802,1
2819,-1.2083124412840143,0.4165409276669138,-1.2030550054862739,1
2821,0.7672004461870325,0.5736757848842329,0.5322520836736817,1
2826,0.3015180271824651,-1.2588698900804622,-1.2030550054862739,1
2828,-1.2083124412840143,-1.2588698900804622,0.21421488877771952,1
2829,-1.2083124412840143,0.25284770461863065,1.278594548187304,1
2832,-1.2083124412840143,-1.2588698900804622,0.6808439331886652,1
2839,-1.2083124412840143,0.3148643825031483,-1.2030550054862739,1
2840,-1.2083124412840143,0.2357886911132271,0.3047320491602638,1
2847,-0.17724742622671455,0.28500843642153684,-1.2030550054862739,1
2849,0.8130821948405491,-1.2588698900804622,0.28819175055445884,1
2850,0.5069025392887685,-1.2588698900804622,-1.2030550054862739,1
2851,0.42304976109435405,0.6308115994082549,0.4518790054304331,1
2858,-0.29011314398535387,-0.9206746435789118,-1.2030550054862739,1
2859,1.36486531017871,0.7794159225233931,-1.2030550054862739,1
2861,-1.2083124412840143,0.524832844874406,-1.2030550054862739,1
2862,-0.6801196417574563,0.4886813217462269,0.628129270021979,1
2867,-0.6801196417574563,-0.5916642293565259,-1.2030550054862739,1
2872,-1.2083124412840143,-1.2588698900804622,0.5910458654896091,1
2873,-1.2083124412840143,-0.33256666970331045,0.7430860583807029,1
2874,0.49733419781940896,-1.2588698900804622,-1.2030550054862739,1
2875,1.6882076145681888,1.7368510291332369,1.7012936629696376,1
2878,0.3864564486652038,0.2357886911132271,0.12356976455643112,1
2883,-1.2083124412840143,-1.2588698900804622,0.41688206041971165,1
2886,1.3803060677656644,1.7008679139551544,1.7012936629696376,1
2889,0.44571653457366817,-1.2588698900804622,-0.3394386797826583,1
2894,-1.2083124412840143,0.5812744611642143,-1.2030550054862739,1
2896,-1.2083124412840143,-1.2588698900804622,0.44055742526427727,1
2897,0.7368089204125399,0.7146776075343831,1.41590274834244,1
2898,-1.2083124412840143,-1.2588698900804622,0.3047320491602638,1
2900,-1.2083124412840143,0.7357376318523684,0.41688206041971165,1
2905,-1.2083124412840143,0.25284770461863065,-1.2030550054862739,1
2908,0.6066847160894324,0.8545686800353272,0.7533735500762323,1
2917,0.6350335180111775,0.159631331180571,-0.5272434805795407,1
2919,0.5599283278212975,0.3688190031991028,0.5669398693043164,1
2926,-1.2083124412840143,-1.2588698900804622,-0.06663535810126328,1
2928,-1.2083124412840143,0.7929720260717223,-1.2030550054862739,1
2929,-1.2083124412840143,0.5736757848842329,-1.2030550054862739,1
2930,-0.22998607620301462,-0.4876596370223719,0.41688206041971165,1
2933,-1.2083124412840143,-1.2588698900804622,-0.2087896206955847,1
2935,-0.049596335584356964,-1.2588698900804622,-1.2030550054862739,1
2938,1.6882076145681888,1.724106955789686,1.4856445812618668,1
2940,-1.2083124412840143,0.38127657521182245,-1.2030550054862739,1
2941,0.4112178617004818,0.25284770461863065,-1.2030550054862739,1
2946,-0.014370592100395223,0.06662195723688293,-1.2030550054862739,1
2949,1.6882076145681888,1.7368510291332369,1.66494135470638,1
2951,-1.2083124412840143,0.4276555048052624,-0.6631424523323485,1
2952,0.4565868477138158,0.7357376318523684,0.541220950096648,1
2957,0.4565868477138158,-1.2588698900804622,-1.2030550054862739,1
2962,-1.2083124412840143,0.5071570694137093,-1.2030550054862739,1
2965,1.5942426067228865,1.7368510291332369,1.7012936629696376,1
2968,0.018131139927055312,-0.33256666970331045,0.4044861700328625,1
2974,-0.049596335584356964,0.32902517724813973,-1.2030550054862739,1
2976,1.548375662059513,1.7368510291332369,1.7012936629696376,1
2979,0.2513075703540991,0.3688190031991028,-0.3394386797826583,1
2984,0.516246341261094,-1.2588698900804622,-1.2030550054862739,1
2985,-0.5460410729945264,-1.2588698900804622,-1.2030550054862739,1
2987,-1.2083124412840143,1.3776013227010921,1.681326488407905,1
2988,-1.2083124412840143,0.4384776389369376,0.42889848801243374,1
2990,0.8617733797130802,0.6749281140391522,0.7271056746450438,1
2995,0.018131139927055312,-1.2588698900804622,-1.2030550054862739,1
2998,-1.2083124412840143,-1.2588698900804622,1.0272009039462229,1
3007,0.5430281330654781,-1.2588698900804622,-1.2030550054862739,1
3012,0.9558596686841141,1.0775975061780412,1.0744772640507896,1
3016,-0.049596335584356964,-0.9206746435789118,-1.2030550054862739,1
3018,0.799881187504918,-1.2588698900804622,0.1714178445814033,1
3020,0.6740523771934069,0.6240957789736408,0.4518790054304331,1
3023,0.6740523771934069,0.8429921961325263,0.9120030493060044,1
3025,0.7862122377179449,0.5812744611642143,-0.6631424523323485,1
3027,0.12755228749470537,-0.08840230047845177,-1.2030550054862739,1
3029,-1.2083124412840143,0.8060808893932266,-1.2030550054862739,1
3034,0.5515683176723154,0.8390567964311804,0.9810574865139117,1
3036,1.0408074044258362,1.0368445710435668,0.9185549264114561,1
3038,0.15093260944237585,0.11567611270203745,-1.2030550054862739,1
3040,0.799881187504918,-1.2588698900804622,-1.2030550054862739,1
3041,0.6139657201040624,-1.2588698900804622,-1.2030550054862739,1
3042,0.6139657201040624,0.2692377533763209,0.193381964619091,1
3045,1.0525054394828275,1.1297765649344056,1.19791709176643,1
3047,0.8381989829324291,0.7458656283215491,0.3047320491602638,1
3051,0.7151400779485831,-1.2588698900804622,-1.2030550054862739,1
3056,-1.2083124412840143,0.159631331180571,0.6063135709136822,1
3058,-0.29011314398535387,0.2357886911132271,-1.2030550054862739,1
3061,1.5149824333584854,0.5736757848842329,-1.2030550054862739,1
3063,0.5681154561505045,-1.2588698900804622,0.03931760852373854,1
3064,-1.2083124412840143,-1.2588698900804622,0.628129270021979,1
3069,-0.5460410729945264,0.3559745067470973,-1.2030550054862739,1
3073,-1.2083124412840143,-1.2588698900804622,0.48399734564479335,1
3075,-1.2083124412840143,0.11567611270203745,0.7533735500762323,1
3086,0.854075173105809,-1.2588698900804622,-1.2030550054862739,1
3094,-0.5460410729945264,1.7368510291332369,1.7012936629696376,1
3543,-0.049596335584356964,0.5887333471692581,0.5669398693043164,1
3551,1.5937240731202282,1.4012696824167794,0.9918330303037888,1
3552,-1.2083124412840143,0.6628088694001198,-1.2030550054862739,1
3553,-1.2083124412840143,-1.2588698900804622,0.5585563029869045,1
3562,0.23309943013804163,-1.2588698900804622,-1.2030550054862739,1
3563,0.4112178617004818,0.06662195723688293,-1.2030550054862739,1
3564,-1.2083124412840143,0.11567611270203745,-1.2030550054862739,1
3565,-1.2083124412840143,0.1800028401031019,0.27093694824129383,1
3575,-1.2083124412840143,0.6924479965749382,-1.2030550054862739,1
3585,0.26873978207712984,-1.2588698900804622,-1.2030550054862739,1
3586,0.5992665941676983,-1.2588698900804622,-1.2030550054862739,1
3587,0.477479863071554,0.3688190031991028,0.3916867753386435,1
3607,-0.049596335584356964,0.38127657521182245,-1.2030550054862739,1
3609,0.477479863071554,0.5960574004009546,0.3206132616439571,1
3620,-1.2083124412840143,-1.2588698900804622,0.12356976455643112,1
3631,-1.2083124412840143,-1.2588698900804622,-0.2691664797121055,1
3641,-1.2083124412840143,-1.2588698900804622,0.2529050033561208,1
3642,0.28545825270904956,0.4980236039731843,0.6869463852946374,1
3662,0.6484760514488598,-1.2588698900804622,-1.2030550054862739,1
3664,0.6801935317578516,0.4593023939750799,0.006913193749693823,1
3674,-1.2083124412840143,0.32902517724813973,-1.2030550054862739,1
3675,0.5839981160358099,0.549987162476176,0.6808439331886652,1
3683,-1.2083124412840143,-1.2588698900804622,-0.6631424523323485,1
3684,-0.014370592100395223,-1.2588698900804622,-1.2030550054862739,1
3685,-1.2083124412840143,-1.2588698900804622,0.37845749895131053,1
3686,-0.13030588440047622,-0.4876596370223719,-0.6631424523323485,1
3697,-1.2083124412840143,-0.271589202322434,0.628129270021979,1
3706,0.28545825270904956,-1.2588698900804622,0.06936295768560423,1
3707,-1.2083124412840143,0.3559745067470973,-1.2030550054862739,1
3717,-1.2083124412840143,-0.9206746435789118,-0.3394386797826583,1
3718,0.6281356184633877,-1.2588698900804622,-1.2030550054862739,1
3719,-0.22998607620301462,-1.2588698900804622,-1.2030550054862739,1
3739,-1.2083124412840143,-0.052586858700527296,0.1714178445814033,1
3741,0.3600749819473337,0.4791206458821368,0.5230700608315394,1
3762,-1.2083124412840143,-1.2588698900804622,0.5831775834883737,1
3783,-1.2083124412840143,-1.2588698900804622,0.23402475113874072,1
3784,-1.2083124412840143,0.6032513208262238,-1.2030550054862739,1
3794,-1.2083124412840143,-1.2588698900804622,0.0973620493270845,1
3796,0.34620927848265043,0.3933694462814361,0.3916867753386435,1
3805,-0.049596335584356964,0.06662195723688293,0.42889848801243374,1
3806,-0.8720454593223557,-1.2588698900804622,-1.2030550054862739,1
3807,0.6211144806303404,0.44902205354447805,0.8053891240263858,1
3817,0.5599283278212975,-1.2588698900804622,-1.2030550054862739,1
3818,-0.17724742622671455,0.159631331180571,0.3916867753386435,1
3827,-0.8720454593223557,0.3148643825031483,-1.2030550054862739,1
3828,0.5515683176723154,-1.2588698900804622,-1.2030550054862739,1
3837,-1.2083124412840143,-1.2588698900804622,0.3358846491092685,1
3839,-0.6801196417574563,-1.2588698900804622,0.12356976455643112,1
3840,0.8501672990649813,-0.21807108165225586,0.7104156311103221,1
3848,-0.08803219173024382,-1.2588698900804622,0.3916867753386435,1
3849,-1.2083124412840143,-1.2588698900804622,0.1714178445814033,1
3851,0.7038356892660469,1.499852198192132,1.7012936629696376,1
3859,0.5681154561505045,-1.2588698900804622,-0.8584938731300092,1
3860,0.10277369644476352,-0.33256666970331045,-1.2030550054862739,1
3868,1.645270011315181,1.3676990584935578,1.1199541390973458,1
3869,0.7368089204125399,-1.2588698900804622,0.148196484111332,1
3870,0.3600749819473337,-1.2588698900804622,-1.2030550054862739,1
3871,0.34620927848265043,0.159631331180571,0.03931760852373854,1
3881,-1.2083124412840143,-1.2588698900804622,0.3206132616439571,1
3882,0.477479863071554,0.2357886911132271,0.23402475113874072,1
3891,-0.17724742622671455,0.03979310809169179,0.4044861700328625,1
3892,-1.2083124412840143,-1.2588698900804622,0.03931760852373854,1
3893,-0.049596335584356964,0.3688190031991028,0.6746414439686242,1
3901,-1.2083124412840143,-1.2588698900804622,0.06936295768560423,1
3902,-1.2083124412840143,-0.7271170892796743,-1.2030550054862739,1
3915,0.7908225507925444,0.7929720260717223,0.5669398693043164,1
3925,-1.2083124412840143,-0.33256666970331045,-1.2030550054862739,1
3926,0.7038356892660469,0.7357376318523684,1.3913181078582166,1
3935,-1.2083124412840143,-0.052586858700527296,0.42889848801243374,1
3937,1.6882076145681888,1.7368510291332369,1.7012936629696376,1
3943,1.6882076145681888,1.7163952006496777,1.5312351287638184,1
3944,-0.17724742622671455,0.6749281140391522,-1.2030550054862739,1
3945,-1.2083124412840143,0.6439169192405837,-1.2030550054862739,1
3954,1.1683967391269758,-1.2588698900804622,-1.2030550054862739,1
3955,0.8258456207389355,-1.2588698900804622,0.42889848801243374,1
3956,0.46716978966430783,-1.2588698900804622,-1.2030550054862739,1
3957,0.5515683176723154,0.541773891648823,0.6554005303385775,1
3967,-1.2083124412840143,0.40511798966761187,-1.2030550054862739,1
3978,-1.2083124412840143,0.541773891648823,-1.2030550054862739,1
3979,0.4345431691302302,0.3148643825031483,0.49414048574908,1
4000,0.6801935317578516,-1.2588698900804622,-1.2030550054862739,1
4001,0.3015180271824651,0.6924479965749382,0.6487638333817898,1
4009,-1.2083124412840143,-1.2588698900804622,0.006913193749693823,1
4010,-1.2083124412840143,-0.052586858700527296,-1.2030550054862739,1
4012,0.7206715299400368,-1.2588698900804622,-1.2030550054862739,1
4022,0.6678132349436877,-1.2588698900804622,-1.2030550054862739,1
4023,0.5761365642853822,0.524832844874406,1.338078900676628,1
4031,-1.2083124412840143,-1.2588698900804622,0.6554005303385775,1
4034,1.3497648853760045,1.7260094866352584,1.7012936629696376,1
4040,1.6882076145681888,1.7368510291332369,1.6942054675109182,1
4042,-1.2083124412840143,0.6103195683587286,-1.2030550054862739,1
4051,1.0187861853129694,-1.2588698900804622,-1.2030550054862739,1
4052,-1.2083124412840143,-0.5916642293565259,0.7216241720011197,1
4063,0.5599283278212975,0.3148643825031483,-1.2030550054862739,1
4064,0.5681154561505045,-1.2588698900804622,-1.2030550054862739,1
4065,0.28545825270904956,0.4886813217462269,0.44055742526427727,1
4074,-0.6801196417574563,-1.2588698900804622,0.03931760852373854,1
4076,-1.2083124412840143,-1.2588698900804622,0.148196484111332,1
4087,0.4112178617004818,0.7037169042167692,0.835064635523046,1
4096,-1.2083124412840143,0.2357886911132271,-1.2030550054862739,1
4098,0.8875594564637187,0.6374174876339032,-1.2030550054862739,1
4106,-1.2083124412840143,0.1994335033735032,-1.2030550054862739,1
4109,0.6550284080618576,0.549987162476176,0.7919073311345717,1
4120,0.5069025392887685,0.2692377533763209,1.3913181078582166,1
4129,-1.2083124412840143,-1.2588698900804622,-0.10891130662920692,1
4131,0.7622978307966666,1.524365238937003,1.7012936629696376,1
4139,0.6740523771934069,-1.2588698900804622,-1.2030550054862739,1
4140,-1.2083124412840143,0.4165409276669138,0.7584132441511656,1
4148,1.6862217589649384,1.3716913764168572,1.3310550558839895,1
4149,0.3015180271824651,-1.2588698900804622,0.7160616127869692,1
4150,-1.2083124412840143,0.159631331180571,-1.2030550054862739,1
4159,0.9980674851796272,-1.2588698900804622,-1.2030550054862739,1
4160,-1.2083124412840143,0.6240957789736408,-1.2030550054862739,1
4162,-1.2083124412840143,0.5659320841942521,0.51366479491942,1
4173,-0.4432229556177488,-0.052586858700527296,0.41688206041971165,1
4182,-0.4432229556177488,0.5659320841942521,-1.2030550054862739,1
4184,-1.2083124412840143,0.32902517724813973,-0.2691664797121055,1
4193,0.7523024124700842,-1.2588698900804622,-1.2030550054862739,1
4206,0.018131139927055312,0.03979310809169179,-0.15591248966159577,1
4215,-1.2083124412840143,0.6308115994082549,0.1714178445814033,1
4216,-1.2083124412840143,-1.2588698900804622,0.193381964619091,1
4217,0.5681154561505045,0.40511798966761187,0.5499860839744879,1
4226,0.33185207076349094,-1.2588698900804622,-0.10891130662920692,1
4237,0.23309943013804163,0.11567611270203745,-0.8584938731300092,1
4238,-1.2083124412840143,0.4791206458821368,-1.2030550054862739,1
4250,-1.2083124412840143,-0.271589202322434,0.27093694824129383,1
4259,-0.22998607620301462,0.6172663788843421,-1.2030550054862739,1
4260,0.10277369644476352,-1.2588698900804622,-1.2030550054862739,1
4261,0.3600749819473337,0.1800028401031019,0.28819175055445884,1
4270,0.477479863071554,-1.2588698900804622,-1.2030550054862739,1
4272,0.5761365642853822,0.3933694462814361,0.5040254731887459,1
4282,-1.2083124412840143,0.0918577637373423,-1.2030550054862739,1
4292,0.2513075703540991,0.4791206458821368,-1.2030550054862739,1
4293,-1.2083124412840143,-0.019528310552559762,-1.2030550054862739,1
4303,0.12755228749470537,0.5659320841942521,-1.2030550054862739,1
4314,-1.2083124412840143,0.549987162476176,0.27093694824129383,1
4315,0.5343000136249676,-1.2588698900804622,-1.2030550054862739,1
4325,-1.2083124412840143,0.7253462202365464,-1.2030550054862739,1
4327,-0.014370592100395223,0.44902205354447805,0.37845749895131053,1
4336,0.6862396660656983,-1.2588698900804622,-1.2030550054862739,1
4358,0.6980580919801656,-1.2588698900804622,-1.2030550054862739,1
4359,-1.2083124412840143,-1.2588698900804622,0.3505901921126285,1
4368,0.8258456207389355,-1.2588698900804622,-1.2030550054862739,1
4369,-1.2083124412840143,0.524832844874406,0.21421488877771952,1
4371,0.4345431691302302,0.3559745067470973,0.3047320491602638,1
4380,0.3864564486652038,0.4276555048052624,-1.2030550054862739,1
4382,0.26873978207712984,-0.9206746435789118,-1.2030550054862739,1
4391,0.3864564486652038,-1.2588698900804622,-1.2030550054862739,1
4392,-1.2083124412840143,-1.2588698900804622,0.47358259868954805,1
4403,0.7095288913982061,-1.2588698900804622,-1.2030550054862739,1
4413,-1.2083124412840143,0.6172663788843421,-0.5272434805795407,1
4414,-1.2083124412840143,0.44902205354447805,-1.2030550054862739,1
4425,0.33185207076349094,-1.2588698900804622,-1.2030550054862739,1
4426,0.19406288277756586,0.38127657521182245,0.3358846491092685,1
4435,0.48753050693802363,-1.2588698900804622,-1.2030550054862739,1
4437,0.3015180271824651,-0.4033633831009251,-1.2030550054862739,1
4448,0.5761365642853822,0.4791206458821368,0.28819175055445884,1
4457,0.7815462273465242,-1.2588698900804622,-1.2030550054862739,1
4459,-1.2083124412840143,0.03979310809169179,-0.10891130662920692,1
4470,0.3600749819473337,0.549987162476176,0.5669398693043164,1
4501,0.5599283278212975,-0.12746529976576773,-1.2030550054862739,1
4512,0.04829287178140979,-1.2588698900804622,-1.2030550054862739,1
4513,0.7368089204125399,-1.2588698900804622,-1.2030550054862739,1
4514,0.3169680582284279,-0.4033633831009251,-1.2030550054862739,1
4523,0.018131139927055312,0.3688190031991028,0.03931760852373854,1
4525,-0.22998607620301462,-0.052586858700527296,0.3505901921126285,1
4536,0.018131139927055312,-0.052586858700527296,0.8009492622546781,1
4546,-1.2083124412840143,0.21800495192825908,-1.2030550054862739,1
4547,-0.6801196417574563,0.06662195723688293,0.692951893272497,1
4590,-1.2083124412840143,-0.17040920538615714,-1.2030550054862739,1
4601,-1.2083124412840143,-1.2588698900804622,0.42889848801243374,1
4602,-0.13030588440047622,-0.21807108165225586,0.46288172144552375,1
4611,0.23309943013804163,0.4693313298960035,0.5322520836736817,1
4613,0.26873978207712984,0.541773891648823,0.7533735500762323,1
4624,-1.2083124412840143,-0.052586858700527296,0.3505901921126285,1
4635,-1.2083124412840143,-1.2588698900804622,0.7271056746450438,1
4646,0.5839981160358099,0.894327549668924,1.4005404483799402,1
4657,1.6375705117628405,1.7368510291332369,1.7012936629696376,1
4663,1.6882076145681888,1.7368510291332369,1.5622587832709154,1
4665,0.3990273925520111,-1.2588698900804622,-1.2030550054862739,1
4666,0.4112178617004818,-0.21807108165225586,0.3505901921126285,1
4675,-1.2083124412840143,0.8270101749464847,0.4518790054304331,1
4676,-1.2083124412840143,0.4593023939750799,-1.2030550054862739,1
4687,-1.2083124412840143,0.4886813217462269,-1.2030550054862739,1
4697,0.28545825270904956,0.3688190031991028,-1.2030550054862739,1
4699,0.3990273925520111,-0.12746529976576773,-1.2030550054862739,1
4709,0.6921936156819333,-1.2588698900804622,-1.2030550054862739,1
4730,-0.4432229556177488,-1.2588698900804622,0.42889848801243374,1
4753,-1.2083124412840143,0.4693313298960035,-1.2030550054862739,1
4760,1.6882076145681888,1.7368510291332369,1.7012936629696376,4
4761,-1.2083124412840143,-1.2588698900804622,-1.2030550054862739,4
4764,0.516246341261094,-1.2588698900804622,-1.2030550054862739,4
4765,0.5430281330654781,0.1382252210423734,0.4044861700328625,4
4774,-1.2083124412840143,-0.08840230047845177,-0.3394386797826583,4
4775,-1.2083124412840143,-1.2588698900804622,0.51366479491942,4
4776,0.37348107090713767,0.6981220344945399,0.8510120477009239,4
4784,-1.2083124412840143,-1.2588698900804622,-0.4233517244745203,4
4786,-1.2083124412840143,-0.33256666970331045,-1.2030550054862739,4
4787,0.34620927848265043,0.5580378274268653,0.7584132441511656,4
4795,-1.2083124412840143,-1.2588698900804622,0.006913193749693823,4
4797,-1.2083124412840143,0.6172663788843421,-1.2030550054862739,4
4798,0.48753050693802363,0.4276555048052624,1.0949671152331435,4
4806,-1.2083124412840143,0.3148643825031483,-1.2030550054862739,4
4807,-1.2083124412840143,-1.2588698900804622,-0.10891130662920692,4
4809,-1.2083124412840143,1.268388888897375,1.6066275716580698,4
4817,-1.2083124412840143,0.01116111023210571,-0.06663535810126328,4
4818,0.10277369644476352,-1.2588698900804622,-1.2030550054862739,4
4820,1.6728228699261032,1.7368510291332369,1.7012936629696376,4
4826,1.6882076145681888,1.7368510291332369,1.6248583211876026,4
4827,0.28545825270904956,0.6308115994082549,-1.2030550054862739,4
4828,-1.2083124412840143,-1.2588698900804622,0.5499860839744879,4
4837,1.192878339727343,0.03979310809169179,-1.2030550054862739,4
4838,-1.2083124412840143,-1.2588698900804622,0.5751445350969236,4
4839,-1.2083124412840143,-0.9206746435789118,-1.2030550054862739,4
4840,0.4345431691302302,-1.2588698900804622,-1.2030550054862739,4
4849,-1.2083124412840143,0.6439169192405837,-1.2030550054862739,4
4850,-1.2083124412840143,-1.2588698900804622,0.5230700608315394,4
4859,0.6862396660656983,-1.2588698900804622,-1.2030550054862739,4
4860,0.8258456207389355,-1.2588698900804622,-1.2030550054862739,4
4862,-1.2083124412840143,-1.2588698900804622,-0.028239906450664206,4
4871,-1.2083124412840143,0.25284770461863065,0.48399734564479335,4
4872,0.49733419781940896,-1.2588698900804622,-1.2030550054862739,4
4873,-1.2083124412840143,-1.2588698900804622,0.3916867753386435,4
4883,-1.2083124412840143,-1.2588698900804622,-0.2691664797121055,4
4884,-1.2083124412840143,0.159631331180571,0.541220950096648,4
4894,-1.2083124412840143,0.524832844874406,-1.2030550054862739,4
4895,0.2513075703540991,0.1800028401031019,0.42889848801243374,4
4906,0.5430281330654781,0.4980236039731843,0.42889848801243374,4
4915,0.26873978207712984,0.0918577637373423,-0.2087896206955847,4
4916,-1.2083124412840143,0.4384776389369376,-1.2030550054862739,4
4917,-0.049596335584356964,-1.2588698900804622,0.5831775834883737,4
4937,-1.2083124412840143,-1.2588698900804622,-0.6631424523323485,4
4938,-0.4432229556177488,-1.2588698900804622,-1.2030550054862739,4
4939,-1.2083124412840143,-0.9206746435789118,0.3206132616439571,4
4949,-1.2083124412840143,-1.2588698900804622,0.3505901921126285,4
4959,-1.2083124412840143,0.1382252210423734,0.193381964619091,4
4960,0.018131139927055312,-1.2588698900804622,-1.2030550054862739,4
4970,-1.2083124412840143,-1.2588698900804622,0.06936295768560423,4
4971,-1.2083124412840143,0.6032513208262238,-1.2030550054862739,4
4972,0.5253756905250941,0.5160906822213766,0.3047320491602638,4
4982,0.3990273925520111,-1.2588698900804622,-1.2030550054862739,4
4983,-0.17724742622671455,-1.2588698900804622,-1.2030550054862739,4
4993,-1.2083124412840143,0.6566095184577555,-1.2030550054862739,4
4994,0.19406288277756586,0.524832844874406,0.5322520836736817,4
5003,0.5253756905250941,-1.2588698900804622,-1.2030550054862739,4
5004,-1.2083124412840143,0.159631331180571,-1.2030550054862739,4
5005,-0.014370592100395223,0.38127657521182245,0.5669398693043164,4
5014,0.48753050693802363,-1.2588698900804622,-1.2030550054862739,4
5015,-1.2083124412840143,0.541773891648823,-1.2030550054862739,4
5016,0.3169680582284279,0.3002040641678599,0.47358259868954805,4
5026,-1.2083124412840143,0.3002040641678599,-1.2030550054862739,4
5027,0.3600749819473337,0.2692377533763209,0.5322520836736817,4
5036,0.2513075703540991,0.03979310809169179,0.3505901921126285,4
5037,-1.2083124412840143,-0.019528310552559762,-1.2030550054862739,4
5048,-1.2083124412840143,0.3933694462814361,-1.2030550054862739,4
5049,0.5069025392887685,0.34271878191663435,0.4044861700328625,4
5059,-1.2083124412840143,-1.2588698900804622,0.42889848801243374,4
5060,0.48753050693802363,0.4276555048052624,0.628129270021979,4
5080,-1.2083124412840143,0.3688190031991028,0.36476931650086886,4
5081,0.5761365642853822,-1.2588698900804622,-1.2030550054862739,4
5091,0.5599283278212975,-1.2588698900804622,0.06936295768560423,4
5092,-1.2083124412840143,0.6503132085596209,-1.2030550054862739,4
5093,0.2513075703540991,0.4980236039731843,0.3206132616439571,4
5103,-1.2083124412840143,0.38127657521182245,-1.2030550054862739,4
5104,-0.08803219173024382,-1.2588698900804622,0.4044861700328625,4
5113,0.477479863071554,-1.2588698900804622,0.6683356756765768,4
5114,0.5430281330654781,-1.2588698900804622,-1.2030550054862739,4
5115,-1.2083124412840143,-0.4876596370223719,0.3047320491602638,4
5123,1.0162578300025193,-1.2588698900804622,-1.2030550054862739,4
5124,-1.2083124412840143,0.3002040641678599,0.3206132616439571,4
5125,-1.2083124412840143,0.4693313298960035,-1.2030550054862739,4
5134,1.3118726676306829,0.6689141478465502,-1.2030550054862739,4
5135,0.21404474537280663,0.4980236039731843,-1.2030550054862739,4
5137,0.34620927848265043,0.4886813217462269,0.5230700608315394,4
5146,-1.2083124412840143,0.34271878191663435,0.7533735500762323,4
5156,1.4527877983328026,1.2537492117362614,-1.2030550054862739,4
5157,0.3015180271824651,-1.2588698900804622,-0.2087896206955847,4
5176,0.4565868477138158,-1.2588698900804622,0.27093694824129383,4
5180,0.4565868477138158,-1.2588698900804622,-1.2030550054862739,4
5191,0.4112178617004818,-1.2588698900804622,-1.2030550054862739,4
5192,-1.2083124412840143,0.40511798966761187,0.3358846491092685,4
5202,-1.2083124412840143,-1.2588698900804622,-0.06663535810126328,4
5212,-0.3599726757623374,-1.2588698900804622,-1.2030550054862739,4
5213,0.3015180271824651,-1.2588698900804622,-1.2030550054862739,4
5214,-1.2083124412840143,0.8350818549566525,1.504391029648705,4
5222,-1.2083124412840143,0.34271878191663435,-1.2030550054862739,4
5223,-1.2083124412840143,0.3559745067470973,0.6554005303385775,4
5231,1.5430242248422557,1.4651949451073951,1.3144399698085676,4
5232,-1.2083124412840143,0.6689141478465502,-1.2030550054862739,4
5233,0.6678132349436877,-1.2588698900804622,-1.2030550054862739,4
5234,-1.2083124412840143,-0.5916642293565259,0.42889848801243374,4
5245,0.3990273925520111,0.4593023939750799,0.5831775834883737,4
5256,0.44571653457366817,0.680853409233281,0.8985366377305771,4
5264,-1.2083124412840143,0.3559745067470973,-1.2030550054862739,4
5266,-1.2083124412840143,0.2692377533763209,-1.2030550054862739,4
5267,0.6678132349436877,0.44902205354447805,1.0527402193210316,4
5275,0.6066847160894324,-1.2588698900804622,-1.2030550054862739,4
5276,-1.2083124412840143,-0.052586858700527296,0.7046837569699097,4
5278,1.6678198018129298,1.7368510291332369,1.7012936629696376,4
5284,1.6882076145681888,1.5730532661134902,1.465104362311514,4
5287,0.5343000136249676,0.3559745067470973,0.12356976455643112,4
5296,-1.2083124412840143,0.3688190031991028,-0.8584938731300092,4
5297,-1.2083124412840143,0.4886813217462269,-1.2030550054862739,4
5308,-1.2083124412840143,-1.2588698900804622,0.3358846491092685,4
5309,-1.2083124412840143,0.2357886911132271,0.4518790054304331,4
5319,-0.6801196417574563,-1.2588698900804622,-1.2030550054862739,4
5330,0.3600749819473337,-1.2588698900804622,-1.2030550054862739,4
5331,0.4345431691302302,-0.33256666970331045,-1.2030550054862739,4
5339,-1.2083124412840143,-0.7271170892796743,-1.2030550054862739,4
5342,-1.2083124412840143,-1.2588698900804622,1.2181516792711857,4
5343,-1.2083124412840143,-1.2588698900804622,0.1714178445814033,4
5345,-1.2083124412840143,0.82291179065301,0.51366479491942,4
5353,1.5662118149951447,1.7368510291332369,1.7012936629696376,4
5354,-0.3599726757623374,-0.17040920538615714,-1.2030550054862739,4
5356,0.747206353849498,0.6439169192405837,0.42889848801243374,4
5359,1.4410148065755777,0.4980236039731843,-1.2030550054862739,4
5360,-1.2083124412840143,-1.2588698900804622,0.4044861700328625,4
5361,0.5839981160358099,-1.2588698900804622,-1.2030550054862739,4
5365,0.49733419781940896,0.6749281140391522,0.7826403860053565,4
5372,-1.2083124412840143,-1.2588698900804622,0.46288172144552375,4
5378,0.28545825270904956,-1.2588698900804622,-1.2030550054862739,4
5383,0.5515683176723154,-1.2588698900804622,-1.2030550054862739,4
5393,0.26873978207712984,-0.4033633831009251,-1.2030550054862739,4
5395,0.6801935317578516,0.7747925756421622,0.6420091938728689,4
5398,-1.2083124412840143,-1.2588698900804622,0.8097765744070016,4
5406,0.4345431691302302,1.381490176690132,1.6986116696983622,4
5407,0.5839981160358099,0.4593023939750799,0.1714178445814033,4
5409,0.7573323519730627,0.6374174876339032,0.6063135709136822,4
5411,-1.2083124412840143,0.2357886911132271,-1.2030550054862739,4
5412,1.6357339600422969,0.8977506723971765,-1.2030550054862739,4
5414,0.33185207076349094,-1.2588698900804622,-1.2030550054862739,4
5418,-0.29011314398535387,-1.2588698900804622,-1.2030550054862739,4
5420,0.21404474537280663,-1.2588698900804622,-1.2030550054862739,4
5424,-1.2083124412840143,0.32902517724813973,0.36476931650086886,4
5425,-1.2083124412840143,-1.2588698900804622,0.28819175055445884,4
5437,0.33185207076349094,0.4980236039731843,0.8053891240263858,4
5446,-0.4432229556177488,0.06662195723688293,-1.2030550054862739,4
5448,-1.2083124412840143,-1.2588698900804622,-0.2087896206955847,4
5456,0.018131139927055312,-1.2588698900804622,0.42889848801243374,4
5459,1.2979148526779456,1.7112930121496392,1.7012936629696376,4
5460,0.3864564486652038,0.1382252210423734,-0.2087896206955847,4
5462,0.7206715299400368,0.5736757848842329,0.748265104574623,4
5465,1.2173163970773582,-0.21807108165225586,-1.2030550054862739,4
5466,-1.2083124412840143,0.7305756900025681,-1.2030550054862739,4
5467,-0.6801196417574563,0.2692377533763209,-1.2030550054862739,4
5468,0.5343000136249676,0.4384776389369376,0.3916867753386435,4
5477,0.3015180271824651,0.2357886911132271,0.2529050033561208,4
5478,-1.2083124412840143,-1.2588698900804622,0.49414048574908,4
5479,0.34620927848265043,0.7605914449480917,0.8097765744070016,4
5488,-0.049596335584356964,-1.2588698900804622,-1.2030550054862739,4
5489,-1.2083124412840143,-1.2588698900804622,0.37845749895131053,4
5490,0.3600749819473337,0.9804183569944414,1.448292815572527,4
5491,-0.8720454593223557,0.4593023939750799,0.2529050033561208,4
5493,0.8341251658362169,0.5812744611642143,0.7682934232449777,4
5496,1.6882076145681888,1.7368510291332369,1.6110609752230982,4
5497,-1.2083124412840143,-1.2588698900804622,0.6808439331886652,4
5498,-1.2083124412840143,-1.2588698900804622,0.613724820775195,4
5499,0.516246341261094,0.40511798966761187,0.6351324626943674,4
5508,0.48753050693802363,0.28500843642153684,0.193381964619091,4
5510,0.37348107090713767,0.5960574004009546,0.6619232277075651,4
5521,0.6740523771934069,0.3002040641678599,-1.2030550054862739,4
5524,-1.2083124412840143,-1.2588698900804622,0.8950912725687161,4
5532,1.3118726676306829,1.6859199292733162,1.7012936629696376,4
5533,0.34620927848265043,0.03979310809169179,-1.2030550054862739,4
5535,0.6550284080618576,0.6924479965749382,0.6209950094673617,4
5538,1.437002862584369,-1.2588698900804622,-1.2030550054862739,4
5539,-1.2083124412840143,0.5960574004009546,-1.2030550054862739,4
5541,0.4112178617004818,0.5160906822213766,0.541220950096648,4
5544,0.8617733797130802,0.8658155396610102,0.28819175055445884,4
5551,-1.2083124412840143,0.11567611270203745,-1.2030550054862739,4
5552,0.42304976109435405,0.7839861639653251,0.6869463852946374,4
5555,-1.2083124412840143,-1.2588698900804622,-0.5272434805795407,4
5560,0.26873978207712984,-1.2588698900804622,-0.10891130662920692,4
5563,0.3864564486652038,1.3428109216407107,1.6368792876314304,4
5564,0.4112178617004818,0.38127657521182245,-0.10891130662920692,4
5566,0.7908225507925444,0.6172663788843421,0.7104156311103221,4
5569,1.6882076145681888,1.687189372583916,1.0680937132946482,4
5572,0.42304976109435405,0.549987162476176,0.5040254731887459,4
5575,0.7151400779485831,-1.2588698900804622,-1.2030550054862739,4
5581,0.12755228749470537,0.2357886911132271,0.41688206041971165,4
5582,-1.2083124412840143,0.1800028401031019,-1.2030550054862739,4
5583,0.37348107090713767,0.7508348785986655,0.613724820775195,4
5592,-1.2083124412840143,0.01116111023210571,-0.4233517244745203,4
5594,0.6550284080618576,1.3666943090891843,1.7012936629696376,4
5595,0.6211144806303404,0.40511798966761187,-1.2030550054862739,4
5597,0.7622978307966666,0.6374174876339032,0.6063135709136822,4
5599,-1.2083124412840143,0.32902517724813973,-0.8584938731300092,4
5600,1.6153575816290942,0.911152743560842,-0.5272434805795407,4
5601,-1.2083124412840143,-0.5916642293565259,0.0973620493270845,4
5602,-1.2083124412840143,0.01116111023210571,0.0973620493270845,4
5606,0.6211144806303404,0.6566095184577555,0.6351324626943674,4
5614,0.44571653457366817,0.6981220344945399,0.7216241720011197,4
5622,-0.13030588440047622,-1.2588698900804622,-1.2030550054862739,4
5623,0.26873978207712984,-1.2588698900804622,-1.2030550054862739,4
5625,0.8462191926962549,1.4636459133905548,1.7012936629696376,4
5626,0.5430281330654781,0.4593023939750799,0.006913193749693823,4
5628,0.7206715299400368,0.6103195683587286,0.41688206041971165,4
5634,-1.2083124412840143,0.11567611270203745,0.3206132616439571,4
5637,0.6066847160894324,0.7037169042167692,-1.2030550054862739,4
5643,-1.2083124412840143,-1.2588698900804622,0.03931760852373854,4
5656,-0.22998607620301462,0.2692377533763209,1.1105505035889944,4
5659,0.8130821948405491,0.7557429981172193,0.6619232277075651,4
5665,-0.5460410729945264,-1.2588698900804622,-1.2030550054862739,4
5668,0.19406288277756586,0.680853409233281,0.7919073311345717,4
5676,0.4565868477138158,0.4593023939750799,0.5831775834883737,4
5684,-1.2083124412840143,0.01116111023210571,-1.2030550054862739,4
5686,0.17306121152605697,-1.2588698900804622,-1.2030550054862739,4
5687,-0.6801196417574563,0.01116111023210571,1.4237169245649273,4
5688,-1.2083124412840143,-0.019528310552559762,0.5499860839744879,4
5690,0.6921936156819333,0.6628088694001198,0.7325083882465342,4
5693,1.6882076145681888,1.7368510291332369,1.6167363257446155,4
5695,-1.2083124412840143,-1.2588698900804622,0.47358259868954805,4
5699,0.17306121152605697,0.4791206458821368,0.5585563029869045,4
5716,-1.2083124412840143,-0.12746529976576773,-1.2030550054862739,4
5718,0.8730380797761387,0.6924479965749382,0.7964557566335713,4
5721,0.4345431691302302,0.6689141478465502,0.6808439331886652,4
5725,-1.2083124412840143,-0.12746529976576773,0.27093694824129383,4
5726,-1.2083124412840143,0.5580378274268653,-1.2030550054862739,4
5727,-1.2083124412840143,0.01116111023210571,0.1714178445814033,4
5730,0.6801935317578516,0.7146776075343831,-0.15591248966159577,4
5749,-1.2083124412840143,-1.2588698900804622,0.8625363364887071,4
5752,-1.2083124412840143,0.7653816259331582,0.6554005303385775,4
5757,-1.2083124412840143,0.4276555048052624,-1.2030550054862739,4
5761,-1.2083124412840143,-1.2588698900804622,0.148196484111332,4
5763,0.42304976109435405,0.2692377533763209,-1.2030550054862739,4
5765,-1.2083124412840143,0.3148643825031483,-0.2087896206955847,4
5768,-1.2083124412840143,-1.2588698900804622,0.3206132616439571,4
5769,0.6066847160894324,0.4384776389369376,0.541220950096648,4
5778,0.3864564486652038,0.3148643825031483,-1.2030550054862739,4
5779,-1.2083124412840143,-0.4876596370223719,-1.2030550054862739,4
5780,-1.2083124412840143,0.01116111023210571,0.613724820775195,4
5783,-1.2083124412840143,0.4980236039731843,0.8226361684890624,4
5788,0.46716978966430783,-1.2588698900804622,-1.2030550054862739,4
5789,-1.2083124412840143,0.6924479965749382,0.692951893272497,4
5794,0.516246341261094,0.6032513208262238,-0.15591248966159577,4
5796,-1.2083124412840143,-1.2588698900804622,0.0973620493270845,4
5798,-1.2083124412840143,0.3933694462814361,0.6554005303385775,4
5803,0.5343000136249676,-1.2588698900804622,-1.2030550054862739,4
5809,-0.22998607620301462,-0.08840230047845177,-1.2030550054862739,4
5822,-1.2083124412840143,-1.2588698900804622,1.185807247143344,4
5825,-1.2083124412840143,0.7885044835752391,0.5322520836736817,4
5831,0.3015180271824651,-0.33256666970331045,-1.2030550054862739,4
5834,-1.2083124412840143,-1.2588698900804622,0.23402475113874072,4
5836,0.5761365642853822,0.5160906822213766,-0.5272434805795407,4
5838,-1.2083124412840143,-0.12746529976576773,0.193381964619091,4
5841,-1.2083124412840143,-1.2588698900804622,0.541220950096648,4
5842,0.34620927848265043,0.549987162476176,0.5987558333764885,4
5853,0.6418123430941068,0.8270101749464847,0.7682934232449777,4
5861,0.19406288277756586,-1.2588698900804622,0.21421488877771952,4
5865,-1.2083124412840143,-1.2588698900804622,-0.8584938731300092,4
5867,0.5599283278212975,0.4791206458821368,0.5831775834883737,4
5869,-1.2083124412840143,-1.2588698900804622,0.12356976455643112,4
5872,-1.2083124412840143,0.4980236039731843,-1.2030550054862739,4
5884,0.3600749819473337,0.6240957789736408,0.7731372654782266,4
5894,0.5681154561505045,-1.2588698900804622,-1.2030550054862739,4
5895,-1.2083124412840143,-1.2588698900804622,0.9406031216799767,4
5898,-1.2083124412840143,0.8803293746969456,0.7046837569699097,4
5903,-1.2083124412840143,0.44902205354447805,-1.2030550054862739,4
5909,0.477479863071554,0.4886813217462269,-1.2030550054862739,4
5915,0.6211144806303404,0.6628088694001198,-0.06663535810126328,4
5924,-0.6801196417574563,-1.2588698900804622,0.49414048574908,4
5926,0.46716978966430783,0.911152743560842,0.8809769926124869,4
5929,-1.2083124412840143,-1.2588698900804622,0.8587347714302322,4
5934,-1.2083124412840143,0.5736757848842329,-1.2030550054862739,4
5935,-1.2083124412840143,-1.2588698900804622,0.6988634100866588,4
5937,1.6292290451148073,1.7368510291332369,1.7012936629696376,4
5940,0.5992665941676983,0.4693313298960035,0.6683356756765768,4
5943,0.7953784531233133,-1.2588698900804622,-1.2030550054862739,4
5945,0.5681154561505045,-1.2588698900804622,-0.8584938731300092,4
5946,0.5430281330654781,0.5736757848842329,0.0973620493270845,4
5957,0.6281356184633877,0.4276555048052624,0.8431243363216375,4
5967,-1.2083124412840143,-1.2588698900804622,0.27093694824129383,4
5968,0.8730380797761387,-1.2588698900804622,0.8268254926090074,4
5971,-1.2083124412840143,0.8694943830257152,0.5910458654896091,4
5980,-1.2083124412840143,-1.2588698900804622,0.2529050033561208,4
5982,0.6350335180111775,0.5333914440037923,-1.2030550054862739,4
5986,0.7622978307966666,-1.2588698900804622,-1.2030550054862739,4
5991,0.6862396660656983,0.3933694462814361,-1.2030550054862739,4
5999,0.477479863071554,0.5160906822213766,0.7633859649810909,4
6010,-1.2083124412840143,-1.2588698900804622,1.2067326608570215,4
6013,0.34620927848265043,0.7408337354767327,0.777919077225952,4
6019,0.23309943013804163,-0.9206746435789118,-0.06663535810126328,4
6022,-1.2083124412840143,0.21800495192825908,0.4518790054304331,4
6024,0.6418123430941068,-1.2588698900804622,-1.2030550054862739,4
6026,0.19406288277756586,-1.2588698900804622,-1.2030550054862739,4
6029,-1.2083124412840143,0.28500843642153684,-1.2030550054862739,4
6030,-1.2083124412840143,0.28500843642153684,0.3505901921126285,4
6040,-1.2083124412840143,-0.4033633831009251,-1.2030550054862739,4
6050,0.23309943013804163,-1.2588698900804622,-1.2030550054862739,4
6052,0.9733121254472312,1.5905270686310138,1.7012936629696376,4
6055,0.7315038933298503,0.6749281140391522,0.47358259868954805,4
6057,-1.2083124412840143,-0.4033633831009251,0.46288172144552375,4
6058,1.5761691819791324,0.2692377533763209,-1.2030550054862739,4
6061,-1.2083124412840143,0.06662195723688293,0.21421488877771952,4
6064,0.5761365642853822,0.6924479965749382,-0.6631424523323485,4
6071,-1.2083124412840143,-1.2588698900804622,-0.15591248966159577,4
6081,0.19406288277756586,-0.08840230047845177,-1.2030550054862739,4
6082,-1.2083124412840143,-1.2588698900804622,0.36476931650086886,4
6086,-1.2083124412840143,-1.2588698900804622,0.7826403860053565,4
6094,1.3638779939158299,1.7368510291332369,1.7012936629696376,4
6095,-0.4432229556177488,-1.2588698900804622,-0.6631424523323485,4
6097,0.5839981160358099,0.549987162476176,0.1714178445814033,4
6100,1.1159161234747987,-1.2588698900804622,-1.2030550054862739,4
6101,-1.2083124412840143,-1.2588698900804622,0.7430860583807029,4
6103,0.42304976109435405,0.549987162476176,0.7160616127869692,4
6114,0.3169680582284279,0.7508348785986655,0.8548936120303021,4
6125,-1.2083124412840143,1.1823171333412048,1.6261225392584497,4
6126,-0.13030588440047622,0.3688190031991028,0.27093694824129383,4
6128,0.7206715299400368,0.4791206458821368,0.6209950094673617,4
6131,1.6882076145681888,1.7368510291332369,1.479155066722625,4
6132,-1.2083124412840143,-1.2588698900804622,0.7533735500762323,4
6134,0.17306121152605697,0.3933694462814361,0.006913193749693823,4
6137,0.5761365642853822,0.2357886911132271,-1.2030550054862739,4
6139,-0.8720454593223557,-0.4033633831009251,-1.2030550054862739,4
6144,0.04829287178140979,-1.2588698900804622,0.006913193749693823,4
6145,0.3990273925520111,0.6240957789736408,0.5585563029869045,4
6153,0.23309943013804163,-1.2588698900804622,0.21421488877771952,4
6156,1.3831290968161571,1.7368510291332369,1.7012936629696376,4
6159,0.6921936156819333,0.70923474409547,0.148196484111332,4
6161,0.3864564486652038,-0.21807108165225586,-1.2030550054862739,4
6162,1.113967238677709,-1.2588698900804622,-1.2030550054862739,4
6163,0.3600749819473337,-1.2588698900804622,0.7533735500762323,4
6165,0.12755228749470537,0.11567611270203745,0.5040254731887459,4
6172,1.5004221741312782,1.4371093840749547,1.4811151436423335,4
6176,0.8422300352540069,0.4384776389369376,1.0909622663142584,4
6177,-1.2083124412840143,-0.08840230047845177,0.27093694824129383,4
6179,1.494289467156579,1.4876870483820726,1.4575031340770577,4
6182,1.6882076145681888,1.4773600598641499,1.0848693162399727,4
6183,0.6418123430941068,-0.052586858700527296,0.6683356756765768,4
6184,-1.2083124412840143,0.25284770461863065,-1.2030550054862739,4
6185,-1.2083124412840143,-0.21807108165225586,0.148196484111332,4
6204,-1.2083124412840143,-0.5916642293565259,-1.2030550054862739,4
6205,-1.2083124412840143,-0.17040920538615714,-1.2030550054862739,4
6207,0.8617733797130802,0.8767506978306777,-0.06663535810126328,4
6210,0.3990273925520111,0.8468888184290998,0.787302664090861,4
6214,-1.2083124412840143,-0.7271170892796743,0.7046837569699097,4
6223,-1.2083124412840143,-0.17040920538615714,0.148196484111332,4
6225,-1.2083124412840143,-0.271589202322434,-0.15591248966159577,4
6226,-1.2083124412840143,0.5071570694137093,-1.2030550054862739,4
6227,-1.2083124412840143,0.40511798966761187,0.5230700608315394,4
6236,-1.2083124412840143,0.21800495192825908,0.12356976455643112,4
6237,0.3169680582284279,-1.2588698900804622,-1.2030550054862739,4
6246,-0.014370592100395223,-1.2588698900804622,-1.2030550054862739,4
6249,0.8462191926962549,1.4477900667507424,1.7012936629696376,4
6252,0.6921936156819333,0.5812744611642143,0.6209950094673617,4
6255,1.6882076145681888,1.3966541703297157,1.0074171249961386,4
6256,0.42304976109435405,-1.2588698900804622,0.148196484111332,4
6267,-0.049596335584356964,-1.2588698900804622,0.06936295768560423,4
6280,-1.2083124412840143,0.5333914440037923,1.41590274834244,4
6283,0.8341251658362169,0.5333914440037923,0.6988634100866588,4
6285,-1.2083124412840143,-1.2588698900804622,-0.3394386797826583,4
6287,-1.2083124412840143,0.21800495192825908,0.7046837569699097,4
6296,-0.22998607620301462,-1.2588698900804622,-1.2030550054862739,4
6298,-0.049596335584356964,0.0918577637373423,-0.028239906450664206,4
6314,-1.2083124412840143,-1.2588698900804622,0.7633859649810909,4
6322,1.5900727733364783,1.7368510291332369,1.7012936629696376,4
6325,0.6484760514488598,0.4886813217462269,0.3047320491602638,4
6328,1.1080586080999615,-1.2588698900804622,-1.2030550054862739,4
6329,0.3015180271824651,0.7253462202365464,-1.2030550054862739,4
6330,-1.2083124412840143,-0.271589202322434,-1.2030550054862739,4
6338,-0.08803219173024382,-1.2588698900804622,-1.2030550054862739,4
6340,0.2513075703540991,-0.12746529976576773,0.21421488877771952,4
6350,0.04829287178140979,-1.2588698900804622,-0.8584938731300092,4
6351,-1.2083124412840143,-1.2588698900804622,0.21421488877771952,4
6353,0.2513075703540991,1.4810813517560153,1.7012936629696376,4
6356,0.5917062074636298,0.3559745067470973,0.5669398693043164,4
6358,-1.2083124412840143,0.25284770461863065,-0.6631424523323485,4
6359,1.6114323715964787,0.8694943830257152,-1.2030550054862739,4
6361,0.21404474537280663,0.1994335033735032,-1.2030550054862739,4
6362,-0.17724742622671455,-1.2588698900804622,-0.10891130662920692,4
6365,0.44571653457366817,0.5960574004009546,0.48399734564479335,4
6372,-1.2083124412840143,0.06662195723688293,-1.2030550054862739,4
6373,0.23309943013804163,0.3688190031991028,0.193381964619091,4
6384,1.06160794369858,1.592722354936481,1.7012936629696376,4
6385,1.0876578515167916,1.0860989841159039,1.1668219513981186,4
6387,1.485240311676327,1.5005555070031558,1.4862866756321236,4
6389,0.4565868477138158,0.2692377533763209,-1.2030550054862739,4
6391,0.5917062074636298,-1.2588698900804622,-1.2030550054862739,4
6393,-1.2083124412840143,0.2692377533763209,0.5751445350969236,4
6396,1.5978510863250193,1.5619177866403222,1.50256296876852,4
6401,0.3600749819473337,-1.2588698900804622,-0.06663535810126328,4
6402,-1.2083124412840143,-0.21807108165225586,-1.2030550054862739,4
6404,1.1632996274064389,1.5672345355455157,1.7012936629696376,4
6405,1.3745928757861052,1.4329185215479854,1.4504407324947404,4
6407,1.6882076145681888,1.7229606163479434,1.6848580406646811,4
6408,1.6882076145681888,1.7368510291332369,1.7012936629696376,5
6409,0.5681154561505045,0.3559745067470973,-1.2030550054862739,5
6410,-1.2083124412840143,-1.2588698900804622,-1.2030550054862739,5
6412,-1.2083124412840143,0.4384776389369376,-1.2030550054862739,5
6413,0.4345431691302302,0.6103195683587286,0.49414048574908,5
6422,-1.2083124412840143,-0.4033633831009251,-0.2691664797121055,5
6423,-1.2083124412840143,-0.019528310552559762,-1.2030550054862739,5
6427,-1.2083124412840143,-1.2588698900804622,0.5230700608315394,5
6432,0.3990273925520111,-1.2588698900804622,-1.2030550054862739,5
6433,-1.2083124412840143,-1.2588698900804622,0.4044861700328625,5
6435,1.528345098894777,1.7368510291332369,1.7012936629696376,5
6436,-1.2083124412840143,-0.052586858700527296,-0.06663535810126328,5
6438,0.8875594564637187,0.82291179065301,0.931316503354966,5
6440,-0.3599726757623374,0.3002040641678599,0.12356976455643112,5
6442,-1.2083124412840143,0.7037169042167692,-1.2030550054862739,5
6443,0.5681154561505045,-1.2588698900804622,-1.2030550054862739,5
6444,-1.2083124412840143,-0.271589202322434,0.28819175055445884,5
6447,1.494289467156579,1.4387726258619506,1.3545606820824707,5
6449,1.477399626361705,1.4085380634382738,1.3155022593241052,5
6452,-0.4432229556177488,-1.2588698900804622,-1.2030550054862739,5
6455,1.3638779939158299,1.7061179402343318,1.7012936629696376,5
6456,1.306121811349538,1.3308292722614021,1.3844503164843822,5
6458,1.481697728128957,1.4934615978971073,1.467147949408811,5
6460,-0.5460410729945264,-0.4033633831009251,-1.2030550054862739,5
6463,0.04829287178140979,-1.2588698900804622,-1.2030550054862739,5
6467,1.495661454718991,1.4261136208394516,1.3545606820824707,5
6469,1.3350793462537294,1.2182175554340833,1.0828149745788695,5
6472,-1.2083124412840143,0.159631331180571,-1.2030550054862739,5
6473,-1.2083124412840143,-1.2588698900804622,0.5831775834883737,5
6475,1.6744747170076069,1.7368510291332369,1.7012936629696376,5
6476,1.503784092859395,1.5619177866403222,1.5622587832709154,5
6478,1.6882076145681888,1.693885792957591,1.646898926438906,5
6483,-1.2083124412840143,-1.2588698900804622,-0.4233517244745203,5
6484,-1.2083124412840143,-0.33256666970331045,0.0973620493270845,5
6487,1.2260778726270296,1.0710963754193379,0.9555733593702893,5
6492,0.19406288277756586,-1.2588698900804622,0.0973620493270845,5
6493,-1.2083124412840143,-1.2588698900804622,-0.2087896206955847,5
6494,-1.2083124412840143,-1.2588698900804622,-0.2691664797121055,5
6495,0.943761458263814,1.5163733998892002,1.7012936629696376,5
6496,0.6862396660656983,0.6172663788843421,0.7160616127869692,5
6498,0.921615016774774,0.9427834628162003,0.9086825818933778,5
6500,-1.2083124412840143,0.1800028401031019,-0.2691664797121055,5
6502,0.7206715299400368,-1.2588698900804622,0.4044861700328625,5
6503,0.3600749819473337,-1.2588698900804622,0.006913193749693823,5
6504,0.516246341261094,0.3559745067470973,0.6209950094673617,5
6513,-1.2083124412840143,-0.4033633831009251,0.148196484111332,5
6514,-0.29011314398535387,-1.2588698900804622,-1.2030550054862739,5
6523,0.26873978207712984,-1.2588698900804622,-1.2030550054862739,5
6524,-1.2083124412840143,-1.2588698900804622,0.4518790054304331,5
6525,-0.17724742622671455,-1.2588698900804622,-1.2030550054862739,5
6526,0.7672004461870325,1.5250234886734522,1.7012936629696376,5
6529,0.6862396660656983,0.680853409233281,0.5669398693043164,5
6531,-1.2083124412840143,0.25284770461863065,-1.2030550054862739,5
6532,1.536371727766963,1.3395808255192225,-1.2030550054862739,5
6533,-1.2083124412840143,-0.271589202322434,0.03931760852373854,5
6534,0.6740523771934069,-1.2588698900804622,-1.2030550054862739,5
6535,0.10277369644476352,0.2357886911132271,-1.2030550054862739,5
6544,-0.13030588440047622,0.2357886911132271,0.44055742526427727,5
6545,-1.2083124412840143,0.32902517724813973,-1.2030550054862739,5
6555,-1.2083124412840143,-0.7271170892796743,-1.2030550054862739,5
6556,-1.2083124412840143,-0.21807108165225586,-1.2030550054862739,5
6557,-1.2083124412840143,-1.2588698900804622,-0.10891130662920692,5
6560,-1.2083124412840143,-1.2588698900804622,-0.15591248966159577,5
6565,-0.22998607620301462,-1.2588698900804622,-1.2030550054862739,5
6566,-1.2083124412840143,-0.4876596370223719,-0.6631424523323485,5
6567,-1.2083124412840143,0.44902205354447805,-1.2030550054862739,5
6568,-1.2083124412840143,1.325254494484893,1.6294701212897806,5
6569,-1.2083124412840143,0.01116111023210571,-1.2030550054862739,5
6571,0.7206715299400368,0.6866925624189224,0.5230700608315394,5
6574,1.6882076145681888,1.7267677060465716,1.5204081350934067,5
6575,-1.2083124412840143,-1.2588698900804622,0.7682934232449777,5
6576,-0.13030588440047622,0.03979310809169179,-1.2030550054862739,5
6577,0.4565868477138158,0.5160906822213766,0.5831775834883737,5
6580,0.516246341261094,0.01116111023210571,-1.2030550054862739,5
6582,-1.2083124412840143,-0.12746529976576773,-1.2030550054862739,5
6588,-1.2083124412840143,0.0918577637373423,-1.2030550054862739,5
6596,-1.2083124412840143,-1.2588698900804622,0.21421488877771952,5
6599,-1.2083124412840143,0.32902517724813973,1.2797728679757716,5
6600,-1.2083124412840143,-1.2588698900804622,0.36476931650086886,5
6602,0.854075173105809,0.6103195683587286,0.8226361684890624,5
6605,1.6882076145681888,1.7368510291332369,1.6897384921759286,5
6607,0.477479863071554,-1.2588698900804622,-0.8584938731300092,5
6608,0.7261254351955075,0.3148643825031483,0.37845749895131053,5
6615,-0.08803219173024382,0.3933694462814361,-1.2030550054862739,5
6617,0.3015180271824651,-1.2588698900804622,-1.2030550054862739,5
6618,-1.2083124412840143,0.549987162476176,-1.2030550054862739,5
6629,-1.2083124412840143,0.4276555048052624,-1.2030550054862739,5
6630,0.6281356184633877,0.7305756900025681,0.7682934232449777,5
6633,-1.2083124412840143,0.1800028401031019,0.8141128042372484,5
6638,-0.014370592100395223,0.21800495192825908,-1.2030550054862739,5
6642,-1.2083124412840143,-1.2588698900804622,-0.5272434805795407,5
6644,0.4345431691302302,0.7747925756421622,0.4044861700328625,5
6646,-1.2083124412840143,-0.33256666970331045,-1.2030550054862739,5
6648,0.5599283278212975,-1.2588698900804622,0.36476931650086886,5
6649,0.6614729974436804,-1.2588698900804622,-1.2030550054862739,5
6660,-1.2083124412840143,0.38127657521182245,-1.2030550054862739,5
6661,-1.2083124412840143,0.1994335033735032,-1.2030550054862739,5
6666,0.8839805151296314,0.4593023939750799,-1.2030550054862739,5
6672,-1.2083124412840143,1.3032855887951509,1.6880038948547136,5
6673,-1.2083124412840143,0.38127657521182245,-0.4233517244745203,5
6675,0.799881187504918,0.7885044835752391,0.7104156311103221,5
6677,-1.2083124412840143,-1.2588698900804622,0.0973620493270845,5
6678,1.6882076145681888,1.6595533195687007,1.0366994018786893,5
6679,-1.2083124412840143,0.5812744611642143,-1.2030550054862739,5
6684,0.5343000136249676,-1.2588698900804622,-1.2030550054862739,5
6690,0.4112178617004818,-1.2588698900804622,-0.6631424523323485,5
6691,0.49733419781940896,-1.2588698900804622,-1.2030550054862739,5
6692,0.018131139927055312,0.5071570694137093,0.3358846491092685,5
6702,-1.2083124412840143,0.2692377533763209,-1.2030550054862739,5
6703,0.10277369644476352,0.974859100466129,1.5882708991938077,5
6704,0.23309943013804163,0.4384776389369376,-0.2691664797121055,5
6706,0.7095288913982061,0.7037169042167692,0.5831775834883737,5
6708,-1.2083124412840143,-1.2588698900804622,-0.028239906450664206,5
6709,1.6757084802451316,1.1773756156166368,0.1714178445814033,5
6710,-1.2083124412840143,-1.2588698900804622,0.3047320491602638,5
6711,0.10277369644476352,-1.2588698900804622,0.4518790054304331,5
6715,0.48753050693802363,-1.2588698900804622,-1.2030550054862739,5
6721,-1.2083124412840143,-1.2588698900804622,-0.3394386797826583,5
6723,-0.049596335584356964,-1.2588698900804622,-1.2030550054862739,5
6731,-1.2083124412840143,-1.2588698900804622,0.12356976455643112,5
6734,-1.2083124412840143,-1.2588698900804622,0.787302664090861,5
6737,-1.2083124412840143,0.38127657521182245,0.748265104574623,5
6742,-1.2083124412840143,-1.2588698900804622,0.3206132616439571,5
6746,0.3864564486652038,0.6566095184577555,0.8268254926090074,5
6748,1.063849419437241,0.8468888184290998,0.9344383929642943,5
6753,-1.2083124412840143,0.34271878191663435,-1.2030550054862739,5
6757,1.3726682071414364,1.3138514401918737,1.2591752731956962,5
6759,1.6099490226536841,1.5730532661134902,1.5019513859796707,5
6762,-1.2083124412840143,0.1994335033735032,0.06936295768560423,5
6763,0.6281356184633877,-1.2588698900804622,0.0973620493270845,5
6766,1.1385391499537332,1.0368445710435668,0.9436468185713173,5
6768,1.3403927471627062,1.3080180517728275,1.2902009682383022,5
6771,-1.2083124412840143,-0.052586858700527296,-1.2030550054862739,5
6774,-1.2083124412840143,-0.4033633831009251,1.213913116363636,5
6775,-1.2083124412840143,0.524832844874406,0.7731372654782266,5
6777,1.2471084710723086,1.2328307463661754,1.2958612506058858,5
6780,1.6882076145681888,1.697188240460251,1.40301278924147,5
6781,-1.2083124412840143,0.0918577637373423,0.48399734564479335,5
6782,-1.2083124412840143,-1.2588698900804622,0.37845749895131053,5
6786,1.2858603855363495,1.325254494484893,1.3310550558839895,5
6788,0.9733121254472312,0.38127657521182245,-1.2030550054862739,5
6794,-1.2083124412840143,-1.2588698900804622,0.5751445350969236,5
6795,-1.2083124412840143,-0.271589202322434,0.27093694824129383,5
6797,1.6694954866020295,1.6316207002254979,1.5747842294214076,5
6802,0.3015180271824651,-1.2588698900804622,-0.2087896206955847,5
6803,0.17306121152605697,-1.2588698900804622,-1.2030550054862739,5
7300,0.19406288277756586,-1.2588698900804622,-1.2030550054862739,5
7302,1.278431741304293,1.3032855887951509,1.3360867136954104,5
7304,1.4693826864528228,1.4510157473868237,1.4410326363981774,5
7313,1.1734245628015951,1.022249342286801,0.8845567362363024,5
7318,-1.2083124412840143,-1.2588698900804622,0.193381964619091,5
7321,1.5937240731202282,1.7368510291332369,1.7012936629696376,5
7322,1.0262708688410127,1.0881954346714644,1.1028441475343895,5
7324,1.1120080956015752,1.0147408335662091,0.9185549264114561,5
7329,-1.2083124412840143,-1.2588698900804622,0.5499860839744879,5
7330,-1.2083124412840143,-0.9206746435789118,-1.2030550054862739,5
7339,0.23309943013804163,-1.2588698900804622,-1.2030550054862739,5
7341,-1.2083124412840143,-1.2588698900804622,0.3358846491092685,5
7344,-1.2083124412840143,-1.2588698900804622,0.8053891240263858,5
7349,-1.2083124412840143,-1.2588698900804622,0.51366479491942,5
7350,-1.2083124412840143,-1.2588698900804622,0.7160616127869692,5
7352,1.6882076145681888,1.7368510291332369,1.7012936629696376,5
7353,0.5069025392887685,0.5160906822213766,0.5669398693043164,5
7355,0.6211144806303404,0.5580378274268653,-1.2030550054862739,5
7357,-1.2083124412840143,0.38127657521182245,0.1714178445814033,5
7359,-1.2083124412840143,0.4791206458821368,0.148196484111332,5
7360,-1.2083124412840143,0.11567611270203745,-1.2030550054862739,5
7371,0.3600749819473337,-1.2588698900804622,-1.2030550054862739,5
7372,0.6139657201040624,0.6689141478465502,0.5230700608315394,5
7375,-1.2083124412840143,0.883875841700895,0.628129270021979,5
7384,0.6740523771934069,0.810356049803686,0.9727600810584753,5
7386,-0.8720454593223557,-1.2588698900804622,-1.2030550054862739,5
7388,-0.29011314398535387,-0.4876596370223719,-1.2030550054862739,5
7390,0.44571653457366817,0.541773891648823,-1.2030550054862739,5
7392,0.4565868477138158,0.3933694462814361,-0.8584938731300092,5
7401,-1.2083124412840143,-0.5916642293565259,-0.3394386797826583,5
7406,-1.2083124412840143,-1.2588698900804622,0.44055742526427727,5
7411,0.3015180271824651,-1.2588698900804622,-0.5272434805795407,5
7412,-1.2083124412840143,0.3933694462814361,0.748265104574623,5
7414,1.6673996185717999,1.7368510291332369,1.7012936629696376,5
7415,0.7420424533269447,0.7885044835752391,0.7216241720011197,5
7417,0.8579436094833455,0.7357376318523684,0.5751445350969236,5
7423,-1.2083124412840143,-1.2588698900804622,0.23402475113874072,5
7426,1.1236111484300397,1.131648881288279,1.1467548101580782,5
7431,-1.2083124412840143,-0.4033633831009251,-1.2030550054862739,5
7432,-1.2083124412840143,-0.271589202322434,0.3047320491602638,5
7433,-1.2083124412840143,-1.2588698900804622,0.2529050033561208,5
7434,0.5069025392887685,1.1920126462940976,1.6546989455314718,5
7435,0.799881187504918,0.8270101749464847,0.847089242943326,5
7437,0.9083556946902743,0.9335592091678551,0.9344383929642943,5
7439,-0.5460410729945264,-1.2588698900804622,0.06936295768560423,5
7441,-1.2083124412840143,0.70923474409547,-1.2030550054862739,5
7442,-1.2083124412840143,0.524832844874406,-1.2030550054862739,5
7446,1.189706407240481,1.2045687708365813,1.0366994018786893,5
7452,-1.2083124412840143,-1.2588698900804622,0.03931760852373854,5
7454,-1.2083124412840143,0.3559745067470973,-0.10891130662920692,5
7464,0.5253756905250941,-1.2588698900804622,-1.2030550054862739,5
7465,1.074859728221259,1.5385823923136497,1.7012936629696376,5
7466,0.9406756438950625,0.939732777847574,0.9185549264114561,5
7468,0.8730380797761387,0.9427834628162003,0.8587347714302322,5
7470,-0.014370592100395223,-0.33256666970331045,-1.2030550054862739,5
7477,1.345629392172016,1.354422873806518,1.2359466053128212,5
7485,-1.2083124412840143,-1.2588698900804622,1.241244177421146,5
7486,0.12755228749470537,0.21800495192825908,0.777919077225952,5
7488,0.7768231872962549,0.8429921961325263,0.692951893272497,5
7491,1.6882076145681888,1.7368510291332369,1.5581483640342038,5
7492,-1.2083124412840143,0.6439169192405837,-1.2030550054862739,5
7494,-0.17724742622671455,0.01116111023210571,0.06936295768560423,5
7497,1.1528898863205141,1.196769700719872,1.2124887666500004,5
7503,-1.2083124412840143,-1.2588698900804622,0.28819175055445884,5
7504,-1.2083124412840143,-1.2588698900804622,0.47358259868954805,5
7505,0.37348107090713767,0.01116111023210571,0.41688206041971165,5
7508,-1.2083124412840143,0.40511798966761187,0.8625363364887071,5
7513,-1.2083124412840143,0.4791206458821368,-1.2030550054862739,5
7514,0.3015180271824651,0.7747925756421622,0.5585563029869045,5
7517,0.9117140628195403,1.0818716296571145,1.1602589470889912,5
7519,-0.3599726757623374,0.28500843642153684,-1.2030550054862739,5
7523,-1.2083124412840143,-1.2588698900804622,-0.06663535810126328,5
7525,-1.2083124412840143,-1.2588698900804622,-0.6631424523323485,5
7535,0.3169680582284279,-1.2588698900804622,-1.2030550054862739,5
7536,-1.2083124412840143,-1.2588698900804622,1.254145768118765,5
7539,0.8617733797130802,0.7408337354767327,0.8226361684890624,5
7543,-1.2083124412840143,-1.2588698900804622,0.6351324626943674,5
7544,0.17306121152605697,-1.2588698900804622,0.42889848801243374,5
7548,0.9733121254472312,1.0985102142848333,1.151879594840511,5
7556,0.6678132349436877,0.862102074422091,0.8881019385085234,5
7559,-1.2083124412840143,0.3148643825031483,0.9053317239914659,5
7564,0.3864564486652038,-1.2588698900804622,-1.2030550054862739,5
7568,0.6980580919801656,0.3002040641678599,0.1714178445814033,5
7570,0.6980580919801656,0.38127657521182245,-1.2030550054862739,5
7572,0.018131139927055312,0.4384776389369376,-1.2030550054862739,5
7574,0.6281356184633877,-1.2588698900804622,-1.2030550054862739,5
7579,0.516246341261094,-1.2588698900804622,-1.2030550054862739,5
7590,-1.2083124412840143,-1.2588698900804622,0.7271056746450438,5
7595,0.33185207076349094,-1.2588698900804622,-1.2030550054862739,5
7596,-1.2083124412840143,-1.2588698900804622,0.148196484111332,5
7598,1.5684489860554138,1.7368510291332369,1.7012936629696376,5
7599,0.8300076868979576,0.9011442635610345,0.9185549264114561,5
7601,0.943761458263814,0.7653816259331582,0.44055742526427727,5
7603,0.018131139927055312,-1.2588698900804622,-1.2030550054862739,5
7605,0.7206715299400368,-1.2588698900804622,-1.2030550054862739,5
7606,-1.2083124412840143,0.40511798966761187,-1.2030550054862739,5
7610,0.15093260944237585,-1.2588698900804622,-1.2030550054862739,5
7612,0.9761441910106176,0.8583533422562644,0.0973620493270845,5
7615,-0.08803219173024382,-1.2588698900804622,-1.2030550054862739,5
7617,-1.2083124412840143,-0.271589202322434,-1.2030550054862739,5
7618,-1.2083124412840143,1.0018952893526971,1.4752002180014467,5
7619,-1.2083124412840143,0.5812744611642143,0.6683356756765768,5
7621,0.8617733797130802,0.7653816259331582,0.6746414439686242,5
7623,-1.2083124412840143,-1.2588698900804622,0.42889848801243374,5
7624,1.6882076145681888,1.393857293630575,1.1467548101580782,5
7625,-1.2083124412840143,0.4693313298960035,-1.2030550054862739,5
7627,0.46716978966430783,0.5659320841942521,0.5669398693043164,5
7636,-1.2083124412840143,-0.21807108165225586,-0.15591248966159577,5
7637,0.5069025392887685,-1.2588698900804622,-1.2030550054862739,5
7646,-0.049596335584356964,-1.2588698900804622,-0.028239906450664206,5
7647,-1.2083124412840143,-1.2588698900804622,0.1714178445814033,5
7648,0.19406288277756586,-1.2588698900804622,0.06936295768560423,5
7649,1.284632731034689,1.7140492724271508,1.7012936629696376,5
7650,0.17306121152605697,0.44902205354447805,0.541220950096648,5
7652,0.747206353849498,0.6924479965749382,0.6808439331886652,5
7654,-1.2083124412840143,-1.2588698900804622,0.06936295768560423,5
7656,0.6614729974436804,-1.2588698900804622,0.7430860583807029,5
7668,0.46716978966430783,-1.2588698900804622,-1.2030550054862739,5
7677,-1.2083124412840143,0.21800495192825908,-1.2030550054862739,5
7680,0.018131139927055312,0.6308115994082549,1.3340828926837691,5
7681,-1.2083124412840143,0.0918577637373423,0.6619232277075651,5
7683,0.7523024124700842,0.7357376318523684,0.6988634100866588,5
7686,1.6882076145681888,1.7233431331815987,1.5460386773842636,5
7689,0.10277369644476352,0.38127657521182245,0.5585563029869045,5
7692,1.0360241304048288,0.81458562914172,-0.3394386797826583,5
7699,-1.2083124412840143,-1.2588698900804622,0.27093694824129383,5
7700,0.4565868477138158,0.894327549668924,0.7731372654782266,5
7703,-1.2083124412840143,-1.2588698900804622,0.6209950094673617,5
7711,1.2037700233568949,1.6764726409593058,1.7012936629696376,5
7712,0.3015180271824651,0.3559745067470973,0.21421488877771952,5
7714,0.6678132349436877,0.4276555048052624,0.5831775834883737,5
7716,-0.08803219173024382,-0.271589202322434,-1.2030550054862739,5
7718,-1.2083124412840143,0.7653816259331582,-1.2030550054862739,5
7719,-1.2083124412840143,-1.2588698900804622,0.5910458654896091,5
7723,0.2513075703540991,-1.2588698900804622,-1.2030550054862739,5
7727,0.28545825270904956,-1.2588698900804622,-1.2030550054862739,5
7729,0.3015180271824651,0.06662195723688293,0.12356976455643112,5
7731,0.6139657201040624,0.9241126563029707,0.7271056746450438,5
7734,-1.2083124412840143,-1.2588698900804622,0.7533735500762323,5
7736,-0.5460410729945264,-1.2588698900804622,-1.2030550054862739,5
7742,1.477399626361705,1.7368510291332369,1.7012936629696376,5
7743,0.34620927848265043,0.34271878191663435,0.41688206041971165,5
7745,0.5430281330654781,0.4791206458821368,0.5230700608315394,5
7747,-0.8720454593223557,-1.2588698900804622,0.193381964619091,5
7750,-1.2083124412840143,0.3002040641678599,-1.2030550054862739,5
7754,0.967583578206777,0.9304355739289406,0.3916867753386435,5
7762,0.37348107090713767,0.6240957789736408,0.7731372654782266,5
7770,0.21404474537280663,-1.2588698900804622,-1.2030550054862739,5
7773,0.21404474537280663,0.9858995228466317,1.4468532293781462,5
7774,-0.049596335584356964,0.5812744611642143,0.5322520836736817,5
7776,0.8258456207389355,0.5887333471692581,0.6683356756765768,5
7779,1.6882076145681888,1.3966541703297157,0.4518790054304331,5
7780,-1.2083124412840143,-1.2588698900804622,0.7216241720011197,5
7782,-0.13030588440047622,0.4276555048052624,0.5585563029869045,5
7785,0.8173838764267198,0.7929720260717223,-0.15591248966159577,5
7804,0.6066847160894324,0.6749281140391522,0.7919073311345717,5
7807,-1.2083124412840143,-1.2588698900804622,0.6420091938728689,5
7815,1.3578968023798743,1.697188240460251,1.7012936629696376,5
7816,-0.5460410729945264,-0.4876596370223719,-1.2030550054862739,5
7818,0.6678132349436877,0.44902205354447805,0.6619232277075651,5
7820,-1.2083124412840143,-0.019528310552559762,-0.6631424523323485,5
7821,1.4795551536668887,0.32902517724813973,-1.2030550054862739,5
7823,0.5761365642853822,-1.2588698900804622,-1.2030550054862739,5
7827,0.7261254351955075,0.4791206458821368,-1.2030550054862739,5
7835,0.3864564486652038,0.4593023939750799,0.5751445350969236,5
7844,-1.2083124412840143,-0.4033633831009251,-0.028239906450664206,5
7846,0.8655652330487374,0.6628088694001198,-1.2030550054862739,5
7849,-1.2083124412840143,0.01116111023210571,0.8183989645849761,5
7855,-0.5460410729945264,0.6308115994082549,0.6808439331886652,5
7858,0.49733419781940896,0.6566095184577555,0.8737112180056157,5
7862,-0.3599726757623374,-1.2588698900804622,-1.2030550054862739,5
7866,0.28545825270904956,-0.271589202322434,-1.2030550054862739,5
7876,-1.2083124412840143,-0.5916642293565259,-1.2030550054862739,5
7877,0.26873978207712984,0.4593023939750799,0.7378344873236136,5
7888,0.44571653457366817,0.4276555048052624,0.9613931050516326,5
7889,-1.2083124412840143,-1.2588698900804622,0.46288172144552375,5
7891,0.9049674606118709,0.7253462202365464,0.8183989645849761,5
7894,1.6882076145681888,1.7368510291332369,1.698274852156611,5
7896,-1.2083124412840143,-1.2588698900804622,0.541220950096648,5
7897,0.516246341261094,0.3002040641678599,0.628129270021979,5
7900,0.9646864538723157,1.0172598170764464,0.9997091132090451,5
7908,0.19406288277756586,0.549987162476176,0.4044861700328625,5
7911,-1.2083124412840143,-1.2588698900804622,0.49414048574908,5
7916,-1.2083124412840143,-1.2588698900804622,0.5669398693043164,5
7917,-1.2083124412840143,-1.2588698900804622,0.6063135709136822,5
7919,1.6352733117327283,1.7368510291332369,1.7012936629696376,5
7920,0.3015180271824651,0.5659320841942521,0.5831775834883737,5
7922,0.5599283278212975,0.7701148990500304,0.41688206041971165,5
7924,-1.2083124412840143,-0.4876596370223719,0.23402475113874072,5
7931,0.9406756438950625,0.4693313298960035,-1.2030550054862739,5
7939,0.5917062074636298,0.9045088188590196,0.6351324626943674,5
7948,-1.2083124412840143,-1.2588698900804622,0.5322520836736817,5
7950,1.6627438615392383,1.7368510291332369,1.7012936629696376,5
7951,-0.13030588440047622,-0.12746529976576773,-0.6631424523323485,5
7953,0.5515683176723154,0.4384776389369376,0.5585563029869045,5
7957,-1.2083124412840143,0.8187705711269059,-1.2030550054862739,5
7959,0.34620927848265043,0.3933694462814361,0.12356976455643112,5
7962,0.8946182501394851,0.70923474409547,-1.2030550054862739,5
7969,0.4565868477138158,-1.2588698900804622,-1.2030550054862739,5
7981,-1.2083124412840143,0.9606045551661201,1.5757660550785182,5
7982,-0.4432229556177488,0.3933694462814361,0.21421488877771952,5
7984,0.6801935317578516,0.680853409233281,0.7216241720011197,5
7987,1.6882076145681888,1.7101053077483614,1.153571459792641,5
7989,-1.2083124412840143,0.6032513208262238,-1.2030550054862739,5
7993,0.799881187504918,0.8908743869598389,0.9671210874115749,5
7999,-0.014370592100395223,0.03979310809169179,0.03931760852373854,5
8000,0.34620927848265043,-1.2588698900804622,-1.2030550054862739,5
8001,0.7672004461870325,0.8908743869598389,-0.15591248966159577,5
8004,-1.2083124412840143,-1.2588698900804622,0.8737112180056157,5
8009,-1.2083124412840143,0.3933694462814361,-1.2030550054862739,5
8010,-1.2083124412840143,-0.019528310552559762,0.847089242943326,5
8013,0.6921936156819333,0.6172663788843421,0.8183989645849761,5
8015,0.8043319549290079,0.6628088694001198,-0.2691664797121055,5
8017,0.04829287178140979,-0.5916642293565259,0.27093694824129383,5
8019,0.6801935317578516,-1.2588698900804622,-1.2030550054862739,5
8021,-1.2083124412840143,0.11567611270203745,0.47358259868954805,5
8024,0.37348107090713767,-1.2588698900804622,-1.2030550054862739,5
8032,0.6418123430941068,0.6308115994082549,-1.2030550054862739,5
8035,-1.2083124412840143,-1.2588698900804622,0.6808439331886652,5
8043,1.5084379977198468,1.7368510291332369,1.7012936629696376,5
8044,0.33185207076349094,0.0918577637373423,0.3916867753386435,5
8046,0.6678132349436877,0.541773891648823,0.6554005303385775,5
8050,-1.2083124412840143,0.7146776075343831,-1.2030550054862739,5
8051,0.6139657201040624,-1.2588698900804622,-1.2030550054862739,5
8055,0.8422300352540069,0.34271878191663435,-1.2030550054862739,5
8063,0.516246341261094,0.6749281140391522,0.777919077225952,5
8071,-1.2083124412840143,0.1800028401031019,-1.2030550054862739,5
8074,0.5253756905250941,1.1855763662297736,1.6167363257446155,5
8075,0.4345431691302302,0.4791206458821368,0.12356976455643112,5
8077,0.7573323519730627,0.7200474674143872,0.8009492622546781,5
8080,1.5656502987016505,1.2564533161919926,-1.2030550054862739,5
8082,-1.2083124412840143,0.11567611270203745,-0.6631424523323485,5
8083,0.5761365642853822,0.38127657521182245,0.5910458654896091,5
8086,0.9049674606118709,0.8429921961325263,0.7046837569699097,5
8094,0.6211144806303404,0.524832844874406,-1.2030550054862739,5
8102,0.5430281330654781,-1.2588698900804622,-1.2030550054862739,5
8103,-0.29011314398535387,-0.21807108165225586,-1.2030550054862739,5
8105,1.4611815664756984,1.7368510291332369,1.7012936629696376,5
8106,0.26873978207712984,0.34271878191663435,0.6619232277075651,5
8108,0.7095288913982061,0.7253462202365464,0.7160616127869692,5
8110,-1.2083124412840143,-1.2588698900804622,0.3505901921126285,5
8112,0.10277369644476352,-0.33256666970331045,-1.2030550054862739,5
8114,0.2513075703540991,0.28500843642153684,0.3505901921126285,5
8123,-1.2083124412840143,0.2357886911132271,0.06936295768560423,5
8125,0.8300076868979576,0.8429921961325263,0.3505901921126285,5
8128,-1.2083124412840143,0.7794159225233931,0.7584132441511656,5
8134,-1.2083124412840143,-1.2588698900804622,0.006913193749693823,5
8137,0.44571653457366817,0.4276555048052624,0.8141128042372484,5
8139,0.6980580919801656,-0.7271170892796743,-1.2030550054862739,5
8141,-1.2083124412840143,-0.17040920538615714,-1.2030550054862739,5
8143,0.477479863071554,-0.08840230047845177,-1.2030550054862739,5
8144,-0.13030588440047622,-1.2588698900804622,-1.2030550054862739,5
8145,0.3169680582284279,0.2692377533763209,0.4044861700328625,5
8154,-1.2083124412840143,-1.2588698900804622,-0.8584938731300092,5
8156,0.42304976109435405,0.6240957789736408,0.7533735500762323,5
8164,-1.2083124412840143,0.4693313298960035,0.3358846491092685,5
8166,0.5992665941676983,-1.2588698900804622,-1.2030550054862739,5
8167,1.5947603768254341,1.7368510291332369,1.7012936629696376,5
8168,-0.014370592100395223,0.3002040641678599,0.006913193749693823,5
8170,0.5069025392887685,0.4384776389369376,0.44055742526427727,5
8172,-1.2083124412840143,0.159631331180571,-0.15591248966159577,5
8174,0.26873978207712984,0.1382252210423734,-1.2030550054862739,5
8176,-0.17724742622671455,0.1994335033735032,0.3916867753386435,5
8185,0.04829287178140979,0.3688190031991028,-1.2030550054862739,5
8196,-1.2083124412840143,-0.12746529976576773,0.6209950094673617,5
8197,-1.2083124412840143,-1.2588698900804622,0.5585563029869045,5
8198,1.3765073387864715,1.722194367428043,1.7012936629696376,5
8201,0.3600749819473337,0.25284770461863065,-0.2691664797121055,5
8203,-1.2083124412840143,0.03979310809169179,-1.2030550054862739,5
8204,1.5794267672441995,1.133512122969391,-1.2030550054862739,5
8205,-1.2083124412840143,0.7305756900025681,-1.2030550054862739,5
8207,0.10277369644476352,-0.4033633831009251,-1.2030550054862739,5
8210,0.7523024124700842,-0.052586858700527296,-1.2030550054862739,5
8232,-1.2083124412840143,-1.2588698900804622,0.6746414439686242,5
8240,1.5869126406122434,1.7368510291332369,1.7012936629696376,5
8243,0.8381989829324291,0.5580378274268653,0.6209950094673617,5
8247,-1.2083124412840143,0.6240957789736408,-1.2030550054862739,5
8249,-0.4432229556177488,-0.9206746435789118,-1.2030550054862739,5
8252,0.5839981160358099,0.6749281140391522,-0.028239906450664206,5
8256,0.10277369644476352,-1.2588698900804622,-1.2030550054862739,5
8258,0.42304976109435405,0.0918577637373423,0.41688206041971165,5
8271,-1.2083124412840143,1.3173086898529152,1.664193607432217,5
8272,-1.2083124412840143,0.159631331180571,-0.2691664797121055,5
8274,0.747206353849498,0.7408337354767327,0.748265104574623,5
8277,1.6882076145681888,1.7368510291332369,1.5713246752721477,5
8278,-0.3599726757623374,0.6566095184577555,-1.2030550054862739,5
8279,0.4112178617004818,-1.2588698900804622,-1.2030550054862739,5
8280,-1.2083124412840143,0.44902205354447805,0.3206132616439571,5
8283,0.6740523771934069,-0.019528310552559762,-1.2030550054862739,5
8291,0.0764231783535582,0.3002040641678599,0.628129270021979,5
8302,0.6350335180111775,0.6374174876339032,0.8431243363216375,5
8305,-0.014370592100395223,0.8507474058761442,0.7046837569699097,5
8311,0.7622978307966666,0.6172663788843421,0.23402475113874072,5
8314,0.8087319164317376,0.1382252210423734,-1.2030550054862739,5
8320,-1.2083124412840143,-0.12746529976576773,-0.4233517244745203,5
8321,-1.2083124412840143,-1.2588698900804622,0.48399734564479335,5
8344,-1.2083124412840143,0.4165409276669138,1.2980996407424608,5
8347,0.869319897327593,0.7146776075343831,0.748265104574623,5
8351,-1.2083124412840143,0.3933694462814361,0.06936295768560423,5
8353,-1.2083124412840143,-0.052586858700527296,-0.4233517244745203,5
8356,0.5839981160358099,0.7557429981172193,-0.2691664797121055,5
8362,-0.3599726757623374,0.1994335033735032,0.23402475113874072,5
8363,-0.014370592100395223,-1.2588698900804622,-1.2030550054862739,5
8364,0.5599283278212975,0.7929720260717223,0.8053891240263858,5
8375,0.799881187504918,1.499147551277879,1.7012936629696376,5
8376,-1.2083124412840143,-0.08840230047845177,-1.2030550054862739,5
8378,0.7908225507925444,0.6924479965749382,0.5499860839744879,5
8380,-1.2083124412840143,0.5333914440037923,-1.2030550054862739,5
8381,1.524578284009182,1.2427360912286074,-1.2030550054862739,5
8384,0.4112178617004818,0.5887333471692581,0.27093694824129383,5
8389,-1.2083124412840143,-0.4876596370223719,-1.2030550054862739,5
8393,0.3169680582284279,-1.2588698900804622,-0.5272434805795407,5
8395,0.3600749819473337,0.3933694462814361,0.9019499295307295,5
8403,-1.2083124412840143,0.3559745067470973,-1.2030550054862739,5
8406,-1.2083124412840143,1.310362232634466,1.6619400039452137,5
8407,-1.2083124412840143,0.21800495192825908,0.1714178445814033,5
8409,0.7095288913982061,0.6749281140391522,0.613724820775195,5
8411,-1.2083124412840143,-1.2588698900804622,0.3916867753386435,5
8412,1.6882076145681888,1.5707368125571501,0.9971027770397295,5
8418,-0.08803219173024382,0.549987162476176,0.3358846491092685,5
8434,-0.5460410729945264,-1.2588698900804622,0.3505901921126285,5
8436,-0.17724742622671455,-1.2588698900804622,0.1714178445814033,5
8437,0.7095288913982061,0.6374174876339032,1.2346095313293306,5
8440,0.799881187504918,0.6924479965749382,0.6619232277075651,5
8443,1.6882076145681888,1.7368510291332369,1.6999554451956962,5
8449,-0.8720454593223557,0.2692377533763209,0.5585563029869045,5
8456,0.5599283278212975,-1.2588698900804622,-1.2030550054862739,5
8468,0.10277369644476352,-0.4876596370223719,-1.2030550054862739,5
8479,0.8980992836100842,1.3919810338556589,1.7012936629696376,5
8482,0.7768231872962549,0.541773891648823,0.36476931650086886,5
8485,1.5805059697053145,1.0710963754193379,-1.2030550054862739,5
8486,-0.17724742622671455,0.6172663788843421,-1.2030550054862739,5
8491,1.6039521401913908,1.6572673922468435,1.610620318241585,5
8493,1.42552450537879,1.392920338919345,1.3123055077001555,5
8499,0.8839805151296314,1.4121199466114192,1.7012936629696376,5
8500,1.3996181876818279,1.4644212361453492,1.48820560804862,5
8502,1.519492808880031,1.529598679363785,1.5198284250259575,5
8504,1.2979148526779456,1.298493104328393,1.2278461553000217,5
8508,-1.2083124412840143,-0.4876596370223719,-0.5272434805795407,5
8511,1.6882076145681888,1.6667733369730788,1.6150004945493632,5
8513,0.9558596686841141,0.6866925624189224,0.28819175055445884,5
8517,-1.2083124412840143,0.5812744611642143,0.541220950096648,5
8520,1.6838236637892285,1.7368510291332369,1.7012936629696376,5
8522,1.6882076145681888,1.690971294324429,1.648473920460556,5
8524,0.12755228749470537,-1.2588698900804622,-1.2030550054862739,5
8528,0.6862396660656983,-1.2588698900804622,0.8009492622546781,5
8529,0.26873978207712984,0.9176861732464826,1.1994018424460584,5
8531,1.6694954866020295,1.6850711623979395,1.6453162960140708,5
8533,1.2907301011331431,1.213722019970246,1.2305672640094079,5
8534,0.9183432320716358,-1.2588698900804622,-1.2030550054862739,5
8537,-0.3599726757623374,0.06662195723688293,-0.10891130662920692,5
8540,1.6457176847807462,1.6185988818444057,1.5581483640342038,5
8542,1.4626867526844256,1.40582894777697,1.3259485747034097,5
8544,-1.2083124412840143,-1.2588698900804622,-1.2030550054862739,3
8545,-1.2083124412840143,0.3688190031991028,-1.2030550054862739,3
8547,0.48753050693802363,-1.2588698900804622,-1.2030550054862739,3
8548,1.4067111070833351,1.7260094866352584,1.7012936629696376,3
8549,0.799881187504918,0.8429921961325263,0.541220950096648,3
8550,1.6882076145681888,1.7368510291332369,1.7012936629696376,3
8551,1.1311501321597088,1.073275587669162,1.0702342574684152,3
8553,-1.2083124412840143,0.32902517724813973,-1.2030550054862739,3
8555,-0.014370592100395223,0.5887333471692581,-0.028239906450664206,3
8556,-1.2083124412840143,-1.2588698900804622,0.28819175055445884,3
8557,-1.2083124412840143,-1.2588698900804622,0.006913193749693823,3
8560,-0.8720454593223557,-1.2588698900804622,-1.2030550054862739,3
8565,-1.2083124412840143,-1.2588698900804622,-0.6631424523323485,3
8566,0.15093260944237585,-1.2588698900804622,-1.2030550054862739,3
8568,0.8341251658362169,-0.9206746435789118,0.692951893272497,3
8569,-1.2083124412840143,-0.052586858700527296,-1.2030550054862739,3
8571,0.6211144806303404,0.8017591741452844,0.7533735500762323,3
8573,-0.08803219173024382,-1.2588698900804622,-1.2030550054862739,3
8576,0.10277369644476352,-1.2588698900804622,0.4044861700328625,3
8577,0.26873978207712984,0.5333914440037923,0.5499860839744879,3
8580,0.6418123430941068,0.7747925756421622,0.777919077225952,3
8587,-1.2083124412840143,0.4276555048052624,-1.2030550054862739,3
8588,0.15093260944237585,0.4791206458821368,0.9466652918608933,3
8596,0.2513075703540991,-1.2588698900804622,-1.2030550054862739,3
8598,-1.2083124412840143,0.1994335033735032,-1.2030550054862739,3
8599,1.0360241304048288,1.5684056713383725,1.7012936629696376,3
8600,-0.13030588440047622,0.0918577637373423,-1.2030550054862739,3
8602,0.6862396660656983,0.6981220344945399,0.6808439331886652,3
8604,-0.014370592100395223,-1.2588698900804622,-1.2030550054862739,3
8605,1.3141477936994281,-0.271589202322434,-1.2030550054862739,3
8606,0.17306121152605697,-1.2588698900804622,0.6351324626943674,3
8607,-1.2083124412840143,0.4980236039731843,-1.2030550054862739,3
8611,0.33185207076349094,0.6172663788843421,0.2529050033561208,3
8618,-1.2083124412840143,-1.2588698900804622,0.37845749895131053,3
8619,-0.22998607620301462,0.38127657521182245,0.5585563029869045,3
8628,-1.2083124412840143,-1.2588698900804622,0.21421488877771952,3
8629,0.5343000136249676,-1.2588698900804622,-1.2030550054862739,3
8630,1.1475732305463482,1.5589305011690333,1.7012936629696376,3
8631,0.15093260944237585,-0.08840230047845177,-1.2030550054862739,3
8633,0.8216380124697195,0.6439169192405837,0.7104156311103221,3
8635,-0.17724742622671455,-1.2588698900804622,-1.2030550054862739,3
8636,1.3231085322884484,-1.2588698900804622,-1.2030550054862739,3
8637,-1.2083124412840143,-1.2588698900804622,0.6420091938728689,3
8638,-1.2083124412840143,0.25284770461863065,-1.2030550054862739,3
8648,0.3864564486652038,0.4276555048052624,-1.2030550054862739,3
8650,-0.29011314398535387,0.0918577637373423,0.5987558333764885,3
8661,0.7720417371617034,-0.9206746435789118,-1.2030550054862739,3
8664,-1.2083124412840143,0.4384776389369376,0.8587347714302322,3
8669,-1.2083124412840143,-1.2588698900804622,0.42889848801243374,3
8673,0.9733121254472312,1.0622546448885708,1.1795920075938353,3
8675,1.563960368874397,1.5810477641086476,1.5329129087828,3
8680,-1.2083124412840143,-1.2588698900804622,0.4518790054304331,3
8684,-1.2083124412840143,-1.2588698900804622,0.7104156311103221,3
8689,0.49733419781940896,-1.2588698900804622,-1.2030550054862739,3
8690,-1.2083124412840143,-0.4033633831009251,0.5669398693043164,3
8691,-1.2083124412840143,0.34271878191663435,-1.2030550054862739,3
8692,1.6818125425440806,1.7368510291332369,1.7012936629696376,3
8695,0.7420424533269447,0.541773891648823,0.6420091938728689,3
8697,-0.6801196417574563,-1.2588698900804622,0.27093694824129383,3
8699,0.5069025392887685,-1.2588698900804622,0.6351324626943674,3
8700,0.26873978207712984,-1.2588698900804622,-1.2030550054862739,3
8704,0.8655652330487374,0.9427834628162003,0.4044861700328625,3
8711,0.37348107090713767,-1.2588698900804622,-1.2030550054862739,3
8715,-1.2083124412840143,-1.2588698900804622,0.1714178445814033,3
8721,-1.2083124412840143,-1.2588698900804622,-0.3394386797826583,3
8722,-1.2083124412840143,-1.2588698900804622,-0.06663535810126328,3
8723,1.4288416915403022,1.7368510291332369,1.7012936629696376,3
8728,-1.2083124412840143,-0.33256666970331045,-1.2030550054862739,3
8729,1.6882076145681888,1.2748609772389319,1.1236469106829703,3
8730,-1.2083124412840143,0.4693313298960035,-1.2030550054862739,3
8731,0.5992665941676983,-1.2588698900804622,-1.2030550054862739,3
8741,-0.049596335584356964,-1.2588698900804622,-0.5272434805795407,3
8742,0.5515683176723154,-1.2588698900804622,-1.2030550054862739,3
8743,0.3864564486652038,0.4276555048052624,0.8097765744070016,3
8751,-0.13030588440047622,-1.2588698900804622,-1.2030550054862739,3
8754,-1.2083124412840143,0.21800495192825908,1.2702321179448974,3
8762,0.3600749819473337,-1.2588698900804622,-1.2030550054862739,3
8763,0.4345431691302302,-1.2588698900804622,-1.2030550054862739,3
8771,1.0262708688410127,-1.2588698900804622,-1.2030550054862739,3
8772,0.5839981160358099,-1.2588698900804622,-1.2030550054862739,3
8773,0.4565868477138158,-1.2588698900804622,-1.2030550054862739,3
8774,-1.2083124412840143,-0.4033633831009251,-1.2030550054862739,3
8784,-1.2083124412840143,-1.2588698900804622,-0.15591248966159577,3
8785,-0.8720454593223557,-0.17040920538615714,0.7325083882465342,3
8804,-1.2083124412840143,-1.2588698900804622,0.3505901921126285,3
8805,-1.2083124412840143,-1.2588698900804622,-0.5272434805795407,3
8807,-0.049596335584356964,0.894327549668924,1.5513581926883468,3
8814,-1.2083124412840143,-1.2588698900804622,0.46288172144552375,3
